Time (s),T_min (C),T_max (C),T_ave (C),Thermal_Input (C)
0.0,300.0,300.0,300.0,300.0
145.45454545454547,300.0,301.9458170247183,300.1700228468201,301.9458170247183
290.90909090909093,300.0,303.92796759740264,300.43427831168833,303.92796759740264
436.3636363636364,300.0,305.92259793939394,300.7663296969697,305.92259793939394
581.8181818181819,300.0,307.9201736969697,301.1542084848485,307.9201736969697
727.2727272727274,300.01021884848484,309.9250827878788,301.58050472727274,309.9250827878788
872.7272727272727,300.0199158181818,311.92265854545457,302.04595927272726,311.92265854545457
1018.1818181818182,300.04119480519483,313.91764935064936,302.5352337662338,313.91764935064936
1163.6363636363637,300.0838545454545,315.9229818181818,303.06661818181817,315.9229818181818
1309.0909090909092,300.1425454545454,317.9298181818182,303.62036363636366,317.9298181818182
1454.5454545454547,300.2170303030303,319.92552727272727,304.20429090909096,319.92552727272727
1600.0000000000002,300.3147142857143,321.9327142857143,304.8161428571429,321.9327142857143
1745.4545454545455,300.4314545454546,323.93790909090905,305.45154545454545,323.93790909090905
1890.909090909091,300.57916363636366,325.9433454545454,306.1077818181818,325.9433454545454
2036.3636363636365,300.7467792207792,327.9504415584415,306.7791688311689,327.9504415584415
2181.818181818182,300.94613333333336,329.954703030303,307.477903030303,329.954703030303
2327.2727272727275,301.1618051948052,331.952974025974,308.19825974025974,331.952974025974
2472.727272727273,301.40477922077923,333.95950649350647,308.9476493506494,333.95950649350647
2618.1818181818185,301.67836363636366,335.97209696969696,309.7089696969697,335.97209696969696
2763.636363636364,301.9734805194805,337.9721038961039,310.4865974025974,337.9721038961039
2909.0909090909095,302.29854545454543,339.9845818181818,311.2821818181818,339.9845818181818
3054.545454545455,302.6413636363636,341.9847012987013,312.1074025974026,341.9847012987013
3200.0000000000005,303.01057142857144,344.0002857142857,312.9404285714286,344.0002857142857
3345.454545454546,303.4101696969697,346.0140727272727,313.7803393939394,346.0140727272727
3490.909090909091,303.8307272727273,348.020961038961,314.6214545454545,348.020961038961
3636.3636363636365,304.27140606060607,350.02661818181815,315.4963393939394,350.02661818181815
3781.818181818182,304.73140259740256,352.03349350649347,316.3828701298701,352.03349350649347
3927.2727272727275,305.21645454545455,354.0386883116883,317.28914285714285,354.0386883116883
4072.727272727273,305.7268363636363,356.04443636363635,318.21043636363635,356.04443636363635
4218.181818181819,306.2494025974026,358.05366233766233,319.1546233766234,358.05366233766233
4363.636363636364,306.8032606060606,360.06698181818183,320.11424242424243,360.06698181818183
4509.09090909091,307.37036363636366,362.07375324675326,321.0881168831169,362.07375324675326
4654.545454545455,307.96087012987016,364.07894805194803,322.078025974026,364.07894805194803
4800.0,308.57626666666664,366.0878666666666,323.082,366.0878666666666
4945.454545454546,309.2035844155844,368.1014805194805,324.10314285714287,368.1014805194805
5090.909090909091,309.8557818181818,370.10734545454545,325.13774545454544,370.10734545454545
5236.363636363637,310.5297142857143,372.117038961039,326.18864935064937,372.117038961039
5381.818181818182,311.22225974025974,374.1292077922078,327.2552207792208,374.1292077922078
5527.272727272728,311.93636363636364,376.13516363636364,328.3377696969697,376.13516363636364
5672.727272727273,312.6671168831169,378.14522077922084,329.42893506493505,378.14522077922084
5818.181818181819,313.4153575757576,380.1577090909091,330.53539393939394,380.1577090909091
5963.636363636364,314.1859090909091,382.1678181818182,331.65645454545455,382.1678181818182
6109.09090909091,314.973,384.1794675324676,332.79285714285714,384.1794675324676
6254.545454545455,315.7790545454545,386.1895636363637,333.94032727272725,386.1895636363637
6400.000000000001,316.604,388.202,335.098,388.202
6545.454545454546,317.4423393939394,390.2162666666667,336.2534424242424,390.2162666666667
6690.909090909092,318.28332467532465,392.2385974025974,337.4012077922078,392.2385974025974
6836.363636363637,319.14418181818183,394.2497272727273,338.5589090909091,394.2497272727273
6981.818181818182,320.0214303030303,396.2604121212121,339.7315878787879,396.2604121212121
7127.272727272728,320.9086753246753,398.25418181818185,340.91974025974025,398.25418181818185
7272.727272727273,321.8106909090909,399.3129090909091,342.04483636363636,399.3129090909091
7418.181818181819,322.72801298701296,399.35375324675323,343.0517662337662,399.35375324675323
7563.636363636364,323.6576623376623,399.37497402597404,343.9877142857143,399.37497402597404
7709.09090909091,324.60059393939395,399.3900121212121,344.8805454545454,399.3900121212121
7854.545454545455,325.5535844155844,399.40503896103894,345.7381558441558,399.40503896103894
8000.000000000001,326.5217333333333,399.4150666666667,346.5706666666667,399.4150666666667
8145.454545454546,327.4946623376623,399.4251038961039,347.383,399.4251038961039
8290.909090909092,328.4663896103896,399.4354935064935,348.172012987013,399.4354935064935
8436.363636363638,329.4445818181818,399.4454909090909,348.93829090909094,399.4454909090909
8581.818181818182,330.41693506493505,399.4555584415584,349.6902077922078,399.4555584415584
8727.272727272728,331.3851515151515,399.4655515151515,350.4319151515151,399.4655515151515
8872.727272727274,332.34735064935063,399.4756233766234,351.15801298701297,399.4756233766234
9018.18181818182,333.29718181818185,399.48,351.8688831168831,399.48
9163.636363636364,334.2396484848485,399.4859757575758,352.57025454545453,399.4859757575758
9309.09090909091,335.177012987013,399.4960779220779,353.26114285714283,399.4960779220779
9454.545454545456,336.10345454545455,399.5060363636364,353.93650909090906,399.5060363636364
9600.0,337.0144285714286,399.51,354.60314285714287,399.51
9745.454545454546,337.9117922077922,399.51653246753244,355.26154545454546,399.51653246753244
9890.909090909092,338.80437575757577,399.5264606060606,355.9064,399.5264606060606
10036.363636363638,339.68418181818186,399.53,356.54244155844157,399.53
10181.818181818182,340.5438666666667,399.5365212121212,357.1738787878788,399.5365212121212
10327.272727272728,341.3963116883117,399.5466623376623,357.79307792207794,399.5466623376623
10472.727272727274,342.24120779220783,399.55,358.399012987013,399.55
10618.18181818182,343.07036363636365,399.5569454545455,359.0006181818182,399.5569454545455
10763.636363636364,343.89223376623374,399.56711688311685,359.58854545454545,399.56711688311685
10909.09090909091,344.701503030303,399.57,360.1703636363637,399.57
11054.545454545456,345.49581818181815,399.5771818181818,360.745,399.5771818181818
11200.000000000002,346.27785714285716,399.58,361.30885714285716,399.58
11345.454545454546,347.05442424242426,399.58743030303026,361.8709575757576,399.58743030303026
11490.909090909092,347.81745454545455,399.59763636363635,362.4170909090909,399.59763636363635
11636.363636363638,348.5668,399.6,362.95949090909096,399.6
11781.818181818182,349.3067922077922,399.60770129870133,363.49276623376625,399.60770129870133
11927.272727272728,350.03636363636366,399.61,364.02263636363637,399.61
12072.727272727274,350.7557212121212,399.61791515151515,364.539503030303,399.61791515151515
12218.18181818182,351.4645974025974,399.62,365.04963636363635,399.62
12363.636363636364,352.1642545454545,399.62797575757577,365.5547393939394,399.62797575757577
12509.09090909091,352.8525714285715,399.6382207792208,366.0463766233766,399.6382207792208
12654.545454545456,353.52967532467534,399.64,366.53468831168834,399.64
12800.000000000002,354.19960000000003,399.6484,367.02000000000004,399.6484
12945.454545454546,354.86522077922075,399.65,367.49906493506495,399.65
13090.909090909092,355.5168606060606,399.6584606060606,367.96610909090913,399.6584606060606
13236.363636363638,356.1531558441559,399.66,368.4245714285714,399.66
13381.818181818184,356.78692207792204,399.6691298701299,368.8817142857143,399.6691298701299
13527.272727272728,357.4086303030303,399.67,369.328703030303,399.67
13672.727272727274,358.0224935064935,399.6791948051948,369.76618181818185,399.6791948051948
13818.18181818182,358.62461818181816,399.68,370.2025454545455,399.68
13963.636363636364,359.2178051948052,399.68,370.6389090909091,399.68
14109.09090909091,359.81001298701295,399.68964935064935,371.055974025974,399.68964935064935
14254.545454545456,360.3921818181818,399.69,371.472896969697,399.69
14400.0,360.96,399.7,371.89,399.7
