Time (s),T_min (C),T_max (C),T_ave (C),Thermal_Input (C)
0.0,100.0,100.0,100.0,100.0
145.45454545454547,100.0,115.5496643383894,101.4926166254347,115.5496643383894
290.90909090909093,100.0,131.42548636363637,103.89818318181818,131.42548636363637
436.3636363636364,100.01095745454546,147.3826616969697,106.88617066666666,147.3826616969697
581.8181818181819,100.06913927272727,163.34387381818183,110.299504,163.34387381818183
727.2727272727274,100.21660545454544,179.32374036363638,114.10225618181819,179.32374036363638
872.7272727272727,100.50751454545455,195.3431343030303,118.1652864848485,195.3431343030303
1018.1818181818182,100.98941558441558,211.33,122.50292207792208,211.33
1163.6363636363637,101.67974545454545,227.33321212121214,127.13607272727272,227.33321212121214
1309.0909090909092,102.59,243.38036363636365,131.9149090909091,243.38036363636365
1454.5454545454547,103.75053333333334,259.3914060606061,136.93174545454548,259.3914060606061
1600.0000000000002,105.14685714285714,275.4125714285714,142.199,275.4125714285714
1745.4545454545455,106.78563636363637,291.4716363636363,147.5269090909091,291.4716363636363
1890.909090909091,108.66236363636364,307.50127272727275,153.09847272727274,307.50127272727275
2036.3636363636365,110.76516883116882,323.59088311688316,158.8518961038961,323.59088311688316
2181.818181818182,113.08884848484848,339.6047515151515,164.66886060606063,339.6047515151515
2327.2727272727275,115.62933766233766,355.64948051948056,170.7102987012987,355.64948051948056
2472.727272727273,118.38454545454546,371.74401298701304,176.86125974025975,371.74401298701304
2618.1818181818185,121.32910303030305,387.7764484848485,183.1204484848485,387.7764484848485
2763.636363636364,124.47322077922078,403.8268311688312,189.5638181818182,403.8268311688312
2909.0909090909095,127.78716363636364,419.93669090909094,196.05745454545456,419.93669090909094
3054.545454545455,131.2751038961039,435.97587012987015,202.67976623376626,435.97587012987015
3200.0000000000005,134.94414285714288,452.0304285714286,209.48014285714288,452.0304285714286
3345.454545454546,138.7513696969697,468.1304848484849,216.33562424242427,468.1304848484849
3490.909090909091,142.71729870129872,484.11233766233767,223.33046753246754,484.11233766233767
3636.3636363636365,146.85149090909093,496.40493333333336,230.217696969697,496.40493333333336
3781.818181818182,151.13858441558443,496.78775324675325,236.0854285714286,496.78775324675325
3927.2727272727275,155.50194805194806,496.96376623376625,241.24988311688313,496.96376623376625
4072.727272727273,160.00636363636366,497.0632363636364,246.03378181818184,497.0632363636364
4218.181818181819,164.64090909090913,497.1470909090909,250.5852207792208,497.1470909090909
4363.636363636364,169.38800000000003,497.21585454545453,254.94738181818184,497.21585454545453
4509.09090909091,174.203038961039,497.27503896103894,259.1625714285715,497.27503896103894
4654.545454545455,179.07116883116885,497.3344805194805,263.2478961038961,497.3344805194805
4800.0,183.9556,497.38533333333334,267.22586666666666,497.38533333333334
4945.454545454546,188.83576623376624,497.4348051948052,271.1067012987013,497.4348051948052
5090.909090909091,193.59043636363637,497.49189090909096,274.87836363636364,497.49189090909096
5236.363636363637,198.10116883116885,497.55512987012986,278.52488311688313,497.55512987012986
5381.818181818182,202.55503896103897,497.60366233766234,282.0439740259741,497.60366233766234
5527.272727272728,206.9688363636364,497.64420606060605,285.4694787878788,497.64420606060605
5672.727272727273,211.34485714285714,497.6839220779221,288.8268051948052,497.6839220779221
5818.181818181819,215.67378181818182,497.7244484848485,292.1100606060606,497.7244484848485
5963.636363636364,219.96363636363637,497.76418181818184,295.33845454545457,497.76418181818184
6109.09090909091,224.20370129870133,497.8018051948052,298.5083896103896,497.8018051948052
6254.545454545455,228.38756363636364,497.83614545454543,301.6235636363636,497.83614545454543
6400.000000000001,232.52,497.872,304.688,497.872
6545.454545454546,236.56566060606062,497.9063878787879,307.70186666666666,497.9063878787879
6690.909090909092,240.45557142857146,497.94625974025973,310.65818181818184,497.94625974025973
6836.363636363637,244.20918181818183,497.98336363636366,313.53609090909094,497.98336363636366
6981.818181818182,247.9180606060606,498.0180848484849,316.3475878787879,498.0180848484849
7127.272727272728,251.58633766233768,498.05355844155844,319.10410389610394,498.05355844155844
7272.727272727273,255.20985454545456,498.08374545454546,321.8091636363637,498.08374545454546
7418.181818181819,258.7924545454546,498.1137532467533,324.46985714285717,498.1137532467533
7563.636363636364,262.33122077922076,498.139948051948,327.0835064935065,498.139948051948
7709.09090909091,265.81716363636366,498.1650181818182,329.65659393939393,498.1650181818182
7854.545454545455,269.2628571428572,498.1951168831169,332.1894285714286,498.1951168831169
8000.000000000001,272.6632,498.2252,334.682,498.2252
8145.454545454546,276.01324675324673,498.2502077922078,337.1343116883117,498.2502077922078
8290.909090909092,279.31594805194806,498.2764805194805,339.549,498.2764805194805
8436.363636363638,282.54101818181823,498.3064727272727,341.9297818181818,498.3064727272727
8581.818181818182,285.64306493506496,498.33667532467535,344.26953246753243,498.33667532467535
8727.272727272728,288.6498666666667,498.36665454545454,346.55905454545456,498.36665454545454
8872.727272727274,291.617038961039,498.3912467532467,348.79777922077926,498.3912467532467
9018.18181818182,294.5496493506494,498.412025974026,350.9927272727273,498.412025974026
9163.636363636364,297.45077575757574,498.4379272727273,353.15064242424245,498.4379272727273
9309.09090909091,300.31535064935065,498.46215584415586,355.26774025974026,498.46215584415586
9454.545454545456,303.14658181818186,498.48207272727274,357.35178181818185,498.48207272727274
9600.0,305.94628571428575,498.50842857142857,359.4101428571429,498.50842857142857
9745.454545454546,308.70457142857146,498.53306493506494,361.43076623376624,498.53306493506494
9890.909090909092,311.4289696969697,498.55292121212125,363.41796363636365,498.55292121212125
10036.363636363638,314.1221298701299,498.5731948051948,365.3803116883117,498.5731948051948
10181.818181818182,316.77376969696974,498.5930424242424,367.3112,498.5930424242424
10327.272727272728,319.3922467532468,498.6133246753247,369.2192077922078,498.6133246753247
10472.727272727274,321.97183116883116,498.6341038961039,371.0922987012987,498.6341038961039
10618.18181818182,324.5127636363637,498.65389090909093,372.9396363636364,498.65389090909093
10763.636363636364,327.02516883116886,498.6742337662338,374.76545454545453,498.6742337662338
10909.09090909091,329.42247272727275,498.6940121212121,376.5591151515152,498.6940121212121
11054.545454545456,331.74436363636363,498.71436363636366,378.3237272727273,498.71436363636366
11200.000000000002,334.0281428571429,498.7351428571429,380.0492857142857,498.7351428571429
11345.454545454546,336.29126060606063,498.7548606060606,381.74287272727275,498.7548606060606
11490.909090909092,338.52418181818183,498.7752727272727,383.4041818181818,498.7752727272727
11636.363636363638,340.7304363636364,498.79498181818184,385.03847272727273,498.79498181818184
11781.818181818182,342.9172727272727,498.8077012987013,386.65370129870126,498.8077012987013
11927.272727272728,345.0748181818182,498.8261818181818,388.2398181818182,498.8261818181818
12072.727272727274,347.21133333333336,498.8458303030303,389.7964242424242,498.8458303030303
12218.18181818182,349.31748051948057,498.8581558441559,391.3289090909091,498.8581558441559
12363.636363636364,351.3968121212121,498.87595151515154,392.84421818181823,498.87595151515154
12509.09090909091,353.4577142857143,498.8882207792208,394.3355714285714,498.8882207792208
12654.545454545456,355.489025974026,498.9072207792208,395.80406493506496,498.9072207792208
12800.000000000002,357.4904,498.9268,397.26,498.9268
12945.454545454546,359.4596363636364,498.93867532467533,398.6885194805195,498.93867532467533
13090.909090909092,361.41058181818187,498.9484606060606,400.0967878787879,498.9484606060606
13236.363636363638,363.3282077922078,498.96748051948055,401.4824545454545,498.96748051948055
13381.818181818184,365.23076623376625,498.9791298701299,402.8551428571429,498.9791298701299
13527.272727272728,367.09589090909094,498.9977696969697,404.20499393939394,498.9977696969697
13672.727272727274,368.9466753246753,499.0091948051948,405.53693506493505,499.0091948051948
13818.18181818182,370.7628,499.0278909090909,406.8476363636364,499.0278909090909
13963.636363636364,372.5526753246753,499.03925974025975,408.1382077922078,499.03925974025975
14109.09090909091,374.2817922077922,499.04964935064936,409.4168701298701,499.04964935064936
14254.545454545456,375.93284848484853,499.0687393939394,410.6686909090909,499.0687393939394
14400.0,377.57,499.08,411.9,499.08
