Time (s),T_min (C),T_max (C),T_ave (C),Thermal_Input (C)
0.0,140.0,140.0,140.0,140.0
145.45454545454547,140.0,141.85217602448486,140.19877010994472,141.85217602448486
290.90909090909093,140.0,143.7461659090909,140.49427363636363,143.7461659090909
436.3636363636364,140.0,145.63985727272728,140.8463818939394,145.63985727272728
581.8181818181819,140.010138030303,147.54081237373737,141.25257656565657,147.54081237373737
727.2727272727274,140.03438045454544,149.43980227272726,141.70510181818182,149.43980227272726
872.7272727272727,140.0679343181818,151.34189598484846,142.19176901515152,151.34189598484846
1018.1818181818182,140.12334940988126,153.24863724742565,142.72300872173767,153.24863724742565
1163.6363636363637,140.19987121212122,155.15282575757576,143.28199242424242,155.15282575757576
1309.0909090909092,140.30719191919192,157.0556313131313,143.86461111111112,157.0556313131313
1454.5454545454547,140.43648484848487,158.95462121212122,144.48683333333332,158.95462121212122
1600.0000000000002,140.58891666666668,160.85691666666668,145.12558333333334,160.85691666666668
1745.4545454545455,140.78260606060607,162.7639595959596,145.79609595959596,162.7639595959596
1890.909090909091,141.00402272727274,164.66797727272728,146.4820681818182,164.66797727272728
2036.3636363636365,141.24987373737375,166.5805808080808,147.19852525252526,166.5805808080808
2181.818181818182,141.532702020202,168.4795707070707,147.9419595959596,168.4795707070707
2327.2727272727275,141.83463636363635,170.39224242424243,148.7041515151515,170.39224242424243
2472.727272727273,142.17403030303032,172.2993131313131,149.49607070707071,172.2993131313131
2618.1818181818185,142.5427196969697,174.2031287878788,150.30426515151515,174.2031287878788
2763.636363636364,142.9366515151515,176.10678787878788,151.13204545454545,176.10678787878788
2909.0909090909095,143.36493434343436,178.01385858585857,151.98053030303032,178.01385858585857
3054.545454545455,143.814398989899,179.92759595959598,152.8527777777778,179.92759595959598
3200.0000000000005,144.29116666666667,181.8346666666667,153.74166666666667,181.8346666666667
3345.454545454546,144.79633333333334,183.73865151515153,154.64784090909092,183.73865151515153
3490.909090909091,145.3329898989899,185.6521414141414,155.55776262626264,185.6521414141414
3636.3636363636365,145.88248484848486,187.5592121212121,156.47089393939393,187.5592121212121
3781.818181818182,146.45558585858586,189.4729494949495,157.40763131313133,189.4729494949495
3927.2727272727275,147.05356565656567,191.3800202020202,158.36924747474748,191.3800202020202
4072.727272727273,147.68179545454547,193.2844090909091,159.35013636363638,193.2844090909091
4218.181818181819,148.32938383838385,195.19749494949497,160.35027272727274,195.19749494949497
4363.636363636364,148.99230303030302,197.10471212121212,161.36867424242425,197.10471212121212
4509.09090909091,149.67733333333334,199.01830303030303,162.40131818181817,199.01830303030303
4654.545454545455,150.38844444444445,200.92537373737375,163.44374242424243,200.92537373737375
4800.0,151.11816666666667,202.83858333333333,164.51091666666667,202.83858333333333
4945.454545454546,151.8746212121212,204.7453181818182,165.59587878787877,204.7453181818182
5090.909090909091,152.6445,206.65964393939393,166.69514393939394,206.65964393939393
5236.363636363637,153.44646464646465,208.56562121212121,167.8050505050505,208.56562121212121
5381.818181818182,154.25470454545456,210.48070454545456,168.9364090909091,210.48070454545456
5527.272727272728,155.09325757575758,212.38592424242424,170.07799242424244,212.38592424242424
5672.727272727273,155.95036363636362,214.298202020202,171.23381818181818,214.298202020202
5818.181818181819,156.82595454545455,216.20622727272726,172.4003181818182,216.20622727272726
5963.636363636364,157.72529292929295,218.1213787878788,173.59056565656567,218.1213787878788
6109.09090909091,158.63191666666668,220.03585606060608,174.78742424242424,220.03585606060608
6254.545454545455,159.56804545454546,221.94168181818182,176.00234090909092,221.94168181818182
6400.000000000001,160.52005555555556,223.85683333333336,177.22822222222223,223.85683333333336
6545.454545454546,161.48506818181818,225.76994696969697,178.45990151515153,225.76994696969697
6690.909090909092,162.4738181818182,227.67713636363638,179.71254545454548,227.67713636363638
6836.363636363637,163.47370454545455,229.59356818181817,180.9680303030303,229.59356818181817
6981.818181818182,164.45892424242425,231.51743939393938,182.18355303030305,231.51743939393938
7127.272727272728,165.46022727272728,233.4289090909091,183.417,233.4289090909091
7272.727272727273,166.47209090909092,235.3377424242424,184.66496969696968,235.3377424242424
7418.181818181819,167.49662626262628,237.25289393939394,185.92875252525255,237.25289393939394
7563.636363636364,168.53411363636366,239.1661590909091,187.19995454545455,239.1661590909091
7709.09090909091,169.58865909090912,241.073196969697,188.4888106060606,241.073196969697
7854.545454545455,170.65750505050505,242.9883484848485,189.7919090909091,242.9883484848485
8000.000000000001,171.73925,244.9035,191.10425,244.9035
8145.454545454546,172.8305707070707,246.81507070707073,192.43083333333334,246.81507070707073
8290.909090909092,173.93930303030305,248.72380303030306,193.76416666666668,248.72380303030306
8436.363636363638,175.0590681818182,250.63895454545457,195.10672727272728,250.63895454545457
8581.818181818182,176.19756565656564,252.55410606060607,196.46430303030303,252.55410606060607
8727.272727272728,177.34632575757576,254.46925757575758,197.82573484848484,254.46925757575758
8872.727272727274,178.50780303030305,256.3804242424243,199.2014090909091,256.3804242424243
9018.18181818182,179.68365151515152,258.28956060606066,200.58632575757576,258.28956060606066
9163.636363636364,180.87675000000002,260.20471212121214,201.98026515151514,260.20471212121214
9309.09090909091,182.07919696969697,262.1198636363636,203.38154545454546,262.1198636363636
9454.545454545456,183.29067424242425,264.03501515151515,204.7920681818182,264.03501515151515
9600.0,184.51711111111112,265.9501666666667,206.21683333333334,265.9501666666667
9745.454545454546,185.7515681818182,267.86531818181817,207.64713636363638,267.86531818181817
9890.909090909092,187.0058787878788,269.77464393939397,209.08326515151515,269.77464393939397
10036.363636363638,188.27178282828282,271.68562121212125,210.5336363636364,271.68562121212125
10181.818181818182,189.54215909090908,273.6007727272727,211.98818181818183,273.6007727272727
10327.272727272728,190.7933181818182,275.5255101010101,213.40917676767677,275.5255101010101
10472.727272727274,192.02968181818184,277.4510757575758,214.81003030303032,277.4510757575758
10618.18181818182,193.2724772727273,279.3662272727273,216.22252272727275,279.3662272727273
10763.636363636364,194.52951515151514,281.2813787878788,217.64925757575756,281.2813787878788
10909.09090909091,195.79012121212122,283.19085606060605,219.08523484848484,283.19085606060605
11054.545454545456,197.06112121212124,285.1016818181818,220.5302575757576,285.1016818181818
11200.000000000002,198.34116666666668,287.01683333333335,221.98491666666666,287.01683333333335
11345.454545454546,199.63305303030302,288.93198484848483,223.44454545454548,288.93198484848483
11490.909090909092,200.93307575757575,290.84713636363637,224.9174090909091,290.84713636363637
11636.363636363638,202.23827272727274,292.7622878787879,226.39619696969697,292.7622878787879
11781.818181818182,203.55856565656566,294.67743939393944,227.88058585858585,294.67743939393944
11927.272727272728,204.88750000000002,296.5925909090909,229.36929545454547,296.5925909090909
12072.727272727274,206.22847727272728,298.50774242424245,230.86784848484848,298.50774242424245
12218.18181818182,207.57718686868688,300.422893939394,232.3773888888889,300.422893939394
12363.636363636364,208.93127272727273,302.33804545454547,233.89079545454547,302.33804545454547
12509.09090909091,210.30085858585858,304.25319696969694,235.41495454545455,304.25319696969694
12654.545454545456,211.67255303030305,306.1683484848485,236.94222727272728,306.1683484848485
12800.000000000002,213.05875,308.0835,238.47775000000001,308.0835
12945.454545454546,214.4492323232323,309.99865151515155,240.02060101010102,309.99865151515155
13090.909090909092,215.84912121212122,311.91380303030303,241.5615378787879,311.91380303030303
13236.363636363638,217.2615909090909,313.82895454545456,243.11695454545458,313.82895454545456
13381.818181818184,218.67797727272728,315.7441060606061,244.67879545454548,315.7441060606061
13527.272727272728,220.10501515151518,317.6592575757576,246.2424318181818,317.6592575757576
13672.727272727274,221.52800000000002,319.5890454545455,247.79509090909093,319.5890454545455
13818.18181818182,222.92322727272727,321.50956060606063,249.31421212121214,321.50956060606063
13963.636363636364,224.3118585858586,323.4247121212121,250.8308686868687,323.4247121212121
14109.09090909091,225.70420454545456,325.33986363636365,252.35495454545455,325.33986363636365
14254.545454545456,227.10760606060606,327.2550151515151,253.8916893939394,327.2550151515151
14400.0,228.52,329.17,255.43,329.17
