Time (s),T_min (C),T_max (C),T_ave (C),Thermal_Input (C)
0.0,300.0,300.0,300.0,300.0
145.45454545454547,300.0,307.7738223851608,300.6611999598557,307.7738223851608
290.90909090909093,300.0,315.72143025974026,301.7268931818182,315.72143025974026
436.3636363636364,300.0001582424242,323.70039175757574,303.06516054545455,323.70039175757574
581.8181818181819,300.0098552121212,331.6906947878788,304.60697872727275,331.6906947878788
727.2727272727274,300.0310942424242,339.6809876969697,306.31136236363636,339.6809876969697
872.7272727272727,300.0795790909091,347.7003816363636,308.1440896363637,347.7003816363636
1018.1818181818182,300.17448051948054,355.70000000000005,310.0994415584416,355.70000000000005
1163.6363636363637,300.33413333333334,363.7012848484849,312.1751878787879,363.7012848484849
1309.0909090909092,300.5505454545455,371.72036363636363,314.37036363636366,371.72036363636363
1454.5454545454547,300.85741818181816,379.730703030303,316.6736484848485,379.730703030303
1600.0000000000002,301.23928571428576,387.7417142857143,319.0702857142857,387.7417142857143
1745.4545454545455,301.7141818181818,395.7816363636363,321.508,395.7816363636363
1890.909090909091,302.2844,403.80225454545456,324.03436363636365,403.80225454545456
2036.3636363636365,302.9335844155844,411.8208831168831,326.6596103896104,411.8208831168831
2181.818181818182,303.6933454545454,419.8335636363637,329.3721090909091,419.8335636363637
2327.2727272727275,304.5443766233766,427.86379220779224,332.1716623376624,427.86379220779224
2472.727272727273,305.4824285714286,435.904012987013,335.0418701298701,435.904012987013
2618.1818181818185,306.5237818181818,443.9332242424243,337.9433090909091,443.9332242424243
2763.636363636364,307.6427012987013,451.9542077922078,340.920961038961,451.9542077922078
2909.0909090909095,308.86414545454545,459.9833454545455,343.9802909090909,459.9833454545455
3054.545454545455,310.17518181818184,468.00440259740265,347.122,468.00440259740265
3200.0000000000005,311.57185714285714,476.0355714285715,350.335,476.0355714285715
3345.454545454546,313.0534181818182,484.0683878787879,353.6192606060606,484.0683878787879
3490.909090909091,314.6117662337662,492.07116883116885,356.9546753246753,492.07116883116885
3636.3636363636365,316.2618909090909,498.21746666666667,360.205696969697,498.21746666666667
3781.818181818182,317.9917662337662,498.40390909090905,362.95489610389615,498.40390909090905
3927.2727272727275,319.80016883116883,498.4718831168831,365.3976103896104,498.4718831168831
4072.727272727273,321.7015272727273,498.5229090909091,367.66832727272725,498.5229090909091
4218.181818181819,323.6761038961039,498.5673246753247,369.81831168831167,498.5673246753247
4363.636363636364,325.7181212121212,498.59792727272725,371.87698181818183,498.59792727272725
4509.09090909091,327.8163376623377,498.6275194805195,373.8662077922078,498.6275194805195
4654.545454545455,329.9623896103896,498.6586883116883,375.7812987012987,498.6586883116883
4800.0,332.13,498.6861333333333,377.6396,498.6861333333333
4945.454545454546,334.31477922077926,498.7059220779221,379.45633766233766,498.7059220779221
5090.909090909091,336.5098909090909,498.7262545454546,381.2229090909091,498.7262545454546
5236.363636363637,338.70848051948053,498.74605194805196,382.9562597402597,498.74605194805196
5381.818181818182,340.8972727272727,498.7668311688312,384.6533246753247,498.7668311688312
5527.272727272728,343.0755393939394,498.787103030303,386.3202060606061,498.787103030303
5672.727272727273,345.2404675324675,498.80696103896105,387.95296103896106,498.80696103896105
5818.181818181819,347.38466666666665,498.8272242424242,389.5623878787879,498.8272242424242
5963.636363636364,349.4990909090909,498.8470909090909,391.14536363636364,498.8470909090909
6109.09090909091,351.5415974025974,498.86787012987014,392.7023896103896,498.86787012987014
6254.545454545455,353.51938181818184,498.88807272727274,394.2256363636364,498.88807272727274
6400.000000000001,355.478,498.904,395.718,498.904
6545.454545454546,357.4112,498.918193939394,397.1763515151515,498.918193939394
6690.909090909092,359.3238831168831,498.93812987012984,398.60689610389613,498.93812987012984
6836.363636363637,361.2162727272728,498.95445454545455,400.0169090909091,498.95445454545455
6981.818181818182,363.08807272727273,498.96904242424245,401.3974909090909,498.96904242424245
7127.272727272728,364.9399480519481,498.9845194805195,402.7575324675325,498.9845194805195
7272.727272727273,366.77138181818185,498.9991636363636,404.0977090909091,498.9991636363636
7418.181818181819,368.5831038961039,499.0145844155844,405.41763636363635,499.0145844155844
7563.636363636364,370.37055844155844,499.024974025974,406.7217532467533,499.024974025974
7709.09090909091,372.136096969697,499.0400121212121,408.005793939394,499.0400121212121
7854.545454545455,373.8815064935065,499.055038961039,409.2697142857143,499.055038961039
8000.000000000001,375.60173333333336,499.06506666666667,410.51346666666666,499.06506666666667
8145.454545454546,377.3019350649351,499.0751038961039,411.7422597402597,499.0751038961039
8290.909090909092,378.9789610389611,499.090987012987,412.95724675324675,499.090987012987
8436.363636363638,380.6334545454545,499.1054909090909,414.1498909090909,499.1054909090909
8581.818181818182,382.26711688311684,499.11555844155845,415.32810389610387,499.11555844155845
8727.272727272728,383.87600000000003,499.1255515151515,416.4906303030303,499.1255515151515
8872.727272727274,385.47037662337664,499.1412467532467,417.63294805194806,499.1412467532467
9018.18181818182,387.04194805194805,499.156012987013,418.75940259740264,499.156012987013
9163.636363636364,388.5841696969697,499.1659757575758,419.87123636363634,499.1659757575758
9309.09090909091,390.10737662337664,499.1760779220779,420.97425974025975,499.1760779220779
9454.545454545456,391.6156363636364,499.1860363636364,422.06003636363636,499.1860363636364
9600.0,393.1022857142857,499.19614285714283,423.1265714285714,499.19614285714283
9745.454545454546,394.56454545454545,499.20653246753244,424.1797792207792,499.20653246753244
9890.909090909092,395.9738666666667,499.2164606060606,425.21482424242424,499.2164606060606
10036.363636363638,397.33106493506494,499.2265974025974,426.2365454545455,499.2265974025974
10181.818181818182,398.66992727272725,499.24304242424245,427.24168484848485,499.24304242424245
10327.272727272728,399.9961168831169,499.2566623376623,428.22625974025976,499.2566623376623
10472.727272727274,401.3155974025974,499.2670519480519,429.1958311688312,499.2670519480519
10618.18181818182,402.6206909090909,499.27694545454546,430.1576,499.27694545454546
10763.636363636364,403.90537662337664,499.2871168831169,431.1005194805195,499.2871168831169
10909.09090909091,405.1848,499.29700606060607,432.0325818181818,499.29700606060607
11054.545454545456,406.449,499.30718181818185,432.94481818181816,499.30718181818185
11200.000000000002,407.69100000000003,499.31,433.8487142857143,499.31
11345.454545454546,408.9236484848485,499.3174303030303,434.7435878787879,499.3174303030303
11490.909090909092,410.1434545454546,499.3276363636364,435.6214545454545,499.3276363636364
11636.363636363638,411.34138181818184,499.3374909090909,436.4866909090909,499.3374909090909
11781.818181818182,412.52794805194804,499.34770129870134,437.3415064935065,499.34770129870134
11927.272727272728,413.7042727272727,499.35809090909095,438.17727272727274,499.35809090909095
12072.727272727274,414.8539878787879,499.36791515151515,439.01070303030303,499.36791515151515
12218.18181818182,415.9971428571429,499.37815584415586,439.8261558441559,499.37815584415586
12363.636363636364,417.12518787878787,499.38797575757576,440.63198787878787,499.38797575757576
12509.09090909091,418.2314025974026,499.39,441.433,499.39
12654.545454545456,419.33270129870135,499.3986103896104,442.2157792207792,499.3986103896104
12800.000000000002,420.4124,499.40840000000003,442.992,499.40840000000003
12945.454545454546,421.4748831168831,499.41867532467535,443.76197402597404,499.41867532467535
13090.909090909092,422.5322060606061,499.42846060606064,444.51146666666665,499.42846060606064
13236.363636363638,423.574025974026,499.43,445.25929870129875,499.43
13381.818181818184,424.5947272727273,499.4391298701299,445.9982207792208,499.4391298701299
13527.272727272728,425.60402424242426,499.44888484848485,446.7174787878788,499.44888484848485
13672.727272727274,426.60270129870133,499.45,447.43444155844156,499.45
13818.18181818182,427.59243636363635,499.4589454545454,448.1430181818182,499.4589454545454
13963.636363636364,428.56115584415585,499.46925974025976,448.8311428571429,499.46925974025976
14109.09090909091,429.51774025974026,499.47964935064937,449.52650649350653,499.47964935064937
14254.545454545456,430.4682303030303,499.48,450.1965090909091,499.48
14400.0,431.4,499.49,450.87,499.49
