Time (s),T_min (C),T_max (C),T_ave (C),Thermal_Input (C)
0.0,300.0,300.0,300.0,300.0
145.45454545454547,300.0,303.8916340494365,300.33059997992785,303.8916340494365
290.90909090909093,300.0,307.8657151298701,300.86833655844157,307.8657151298701
436.3636363636364,300.0,311.8451958787879,301.53250115151513,311.8451958787879
581.8181818181819,300.0,315.8403473939394,302.2985617575758,315.8403473939394
727.2727272727274,300.01065654545454,319.8403844242424,303.15100945454543,319.8403844242424
872.7272727272727,300.0397474545455,323.8452329090909,304.0819185454545,323.8452329090909
1018.1818181818182,300.09209090909087,327.845,305.08016883116886,327.845
1163.6363636363637,300.1670666666667,331.8453212121212,306.1338787878788,331.8453212121212
1309.0909090909092,300.2754545454545,335.8503636363636,307.25072727272726,335.8503636363636
1454.5454545454547,300.4340606060606,339.86035151515154,308.41787878787875,339.86035151515154
1600.0000000000002,300.62942857142855,343.8658571428571,309.63057142857144,343.8658571428571
1745.4545454545455,300.86290909090906,347.8858181818182,310.86063636363633,347.8858181818182
1890.909090909091,301.15832727272726,351.89556363636365,312.1444363636364,351.89556363636365
2036.3636363636365,301.4926753246753,355.9008831168831,313.47657142857145,355.9008831168831
2181.818181818182,301.8822666666666,359.91178181818185,314.85343030303034,359.91178181818185
2327.2727272727275,302.3136103896104,363.92594805194807,316.27272727272725,363.92594805194807
2472.727272727273,302.7968831168831,367.9363376623377,317.7326233766234,367.9363376623377
2618.1818181818185,303.3267272727273,371.9474181818182,319.23471515151516,371.9474181818182
2763.636363636364,303.91275324675325,375.96140259740264,320.7731948051948,375.96140259740264
2909.0909090909095,304.5370909090909,379.97250909090906,322.3576727272727,379.97250909090906
3054.545454545455,305.22125974025977,383.98646753246754,323.9718701298701,383.98646753246754
3200.0000000000005,305.9474285714286,388.00242857142854,325.61528571428573,388.00242857142854
3345.454545454546,306.7240484848485,392.0360484848485,327.2706787878788,392.0360484848485
3490.909090909091,307.5376103896104,396.04384415584417,328.9452207792208,396.04384415584417
3636.3636363636365,308.39849696969696,400.0632363636364,330.6583636363636,400.0632363636364
3781.818181818182,309.30081818181816,404.07698701298705,332.4097792207792,404.07698701298705
3927.2727272727275,310.2534025974026,408.0897532467533,334.1959090909091,408.0897532467533
4072.727272727273,311.24109090909093,412.10887272727274,336.0205454545454,412.10887272727274
4218.181818181819,312.269038961039,416.12488311688315,337.8719220779221,416.12488311688315
4363.636363636364,313.34123636363637,420.14396363636365,339.76320000000004,420.14396363636365
4509.09090909091,314.4557142857143,424.1575064935065,341.6887142857143,424.1575064935065
4654.545454545455,315.6101558441558,428.17079220779226,343.64025974025975,428.17079220779226
4800.0,316.8064,432.19573333333335,345.62173333333334,432.19573333333335
4945.454545454546,318.03532467532466,436.22592207792206,347.6185194805195,436.22592207792206
5090.909090909091,319.2928,440.24781818181816,349.6173454545455,440.24781818181816
5236.363636363637,320.58127272727273,444.271051948052,351.6361168831169,444.271051948052
5381.818181818182,321.90402597402596,448.2884155844156,353.6931168831169,448.2884155844156
5527.272727272728,323.2678666666667,452.30387878787883,355.7806787878788,452.30387878787883
5672.727272727273,324.66683116883115,456.3269610389611,357.89698701298704,456.3269610389611
5818.181818181819,326.1018181818182,460.3454181818182,360.04550303030305,460.3454181818182
5963.636363636364,327.567,464.3620909090909,362.2180909090909,464.3620909090909
6109.09090909091,329.06845454545453,468.3828701298702,364.4181688311688,468.3828701298702
6254.545454545455,330.60581818181817,472.4050909090909,366.6424,472.4050909090909
6400.000000000001,332.17600000000004,476.428,368.896,476.428
6545.454545454546,333.77190303030306,480.45024242424245,371.1809818181818,480.45024242424245
6690.909090909092,335.3781948051948,484.4771948051948,373.47835064935066,484.4771948051948
6836.363636363637,337.0138181818182,488.5039090909091,375.7878181818182,488.5039090909091
6981.818181818182,338.6766909090909,492.52630303030304,378.1196121212121,492.52630303030304
7127.272727272728,340.37571428571425,496.50836363636364,380.4659220779221,496.50836363636364
7272.727272727273,342.10014545454544,498.6349818181818,382.68592727272727,498.6349818181818
7418.181818181819,343.85393506493506,498.71833766233766,384.67436363636364,498.71833766233766
7563.636363636364,345.6454805194805,498.75492207792206,386.5205064935065,498.75492207792206
7709.09090909091,347.4661454545455,498.7850181818182,388.2810787878788,498.7850181818182
7854.545454545455,349.31197402597405,498.8151168831169,389.97119480519484,498.8151168831169
8000.000000000001,351.17786666666666,498.8401333333333,391.60613333333333,498.8401333333333
8145.454545454546,353.0589090909091,498.8602077922078,393.20068831168834,498.8602077922078
8290.909090909092,354.95531168831167,498.880987012987,394.7475454545455,498.880987012987
8436.363636363638,356.8507272727273,498.90098181818183,396.2610909090909,498.90098181818183
8581.818181818182,358.7471948051948,498.9211168831169,397.7492987012987,498.9211168831169
8727.272727272728,360.63699393939396,498.93555151515153,399.20162424242426,498.93555151515153
8872.727272727274,362.5122077922078,498.9512467532467,400.6304025974026,498.9512467532467
9018.18181818182,364.37632467532467,498.966012987013,402.0357402597403,498.966012987013
9163.636363636364,366.22539393939394,498.98195151515154,403.4125818181818,498.98195151515154
9309.09090909091,368.0536363636364,498.9960779220779,404.7701298701299,498.9960779220779
9454.545454545456,369.8627636363637,499.0120727272727,406.10094545454547,499.0120727272727
9600.0,371.65042857142856,499.0261428571428,407.414,499.0261428571428
9745.454545454546,373.4205194805195,499.0365324675325,408.71002597402594,499.0365324675325
9890.909090909092,375.1729090909091,499.05292121212125,409.9863393939394,499.05292121212125
10036.363636363638,376.8985714285714,499.0665974025974,411.2416883116883,499.0665974025974
10181.818181818182,378.56860606060604,499.0830424242424,412.4781939393939,499.0830424242424
10327.272727272728,380.17267532467537,499.09666233766234,413.6994935064935,499.09666233766234
10472.727272727274,381.7448441558442,499.10705194805195,414.89392207792207,499.10705194805195
10618.18181818182,383.30127272727276,499.1238909090909,416.0634545454546,499.1238909090909
10763.636363636364,384.83618181818184,499.13711688311685,417.2128571428571,499.13711688311685
10909.09090909091,386.3599515151515,499.14700606060603,418.3497090909091,499.14700606060603
11054.545454545456,387.87136363636364,499.1571818181818,419.4612727272727,499.1571818181818
11200.000000000002,389.3627142857143,499.1675714285714,420.555,499.1675714285714
11345.454545454546,390.83940606060605,499.1848606060606,421.63476363636363,499.1848606060606
11490.909090909092,392.2990909090909,499.1976363636364,422.6989090909091,499.1976363636364
11636.363636363638,393.74614545454546,499.2074909090909,423.7490181818182,499.2074909090909
11781.818181818182,395.17507792207795,499.21770129870134,424.78242857142857,499.21770129870134
11927.272727272728,396.5822727272727,499.22809090909095,425.8029090909091,499.22809090909095
12072.727272727274,397.97186666666664,499.23791515151515,426.8052606060606,499.23791515151515
12218.18181818182,399.3465714285714,499.24815584415586,427.79480519480524,499.24815584415586
12363.636363636364,400.6986303030303,499.25797575757576,428.77555151515156,499.25797575757576
12509.09090909091,402.03225974025975,499.26822077922077,429.7363116883117,499.26822077922077
12654.545454545456,403.3535194805195,499.2786103896104,430.6835454545455,499.2786103896104
12800.000000000002,404.6556,499.2884,431.6248,499.2884
12945.454545454546,405.94574025974026,499.29867532467534,432.5434285714286,499.29867532467534
13090.909090909092,407.20987878787884,499.30846060606063,433.455296969697,499.30846060606063
13236.363636363638,408.46757142857143,499.31874025974025,434.35166233766233,499.31874025974025
13381.818181818184,409.6973246753247,499.32912987012986,435.2451688311688,499.32912987012986
13527.272727272728,410.91949090909094,499.33888484848484,436.1196363636364,499.33888484848484
13672.727272727274,412.1174025974026,499.3491948051948,436.9831688311688,499.3491948051948
13818.18181818182,413.3102909090909,499.35,437.82825454545457,499.35
13963.636363636364,414.4770909090909,499.35925974025974,438.670038961039,499.35925974025974
14109.09090909091,415.63107792207796,499.36964935064935,439.50194805194803,499.36964935064935
14254.545454545456,416.76625454545456,499.3793696969697,440.31705454545454,499.3793696969697
14400.0,417.89,499.39,441.12,499.39
