Time (s),T_min (C),T_max (C),T_ave (C),Thermal_Input (C)
0.0,160.0,160.0,160.0,160.0
70.0,160.0,160.8480894687791,160.08698353525938,160.8480894687791
140.0,160.0,161.69617893755824,160.17396707051878,161.69617893755824
210.0,160.0,162.55495,160.2981,162.55495
280.0,160.0,163.41828333333333,160.4381,163.41828333333333
350.0,160.0,164.28161666666665,160.58187083333334,164.28161666666665
420.0,160.0,165.14495,160.7510375,165.14495
490.0,160.00242083333333,166.00828333333334,160.92746666666665,166.00828333333334
560.0,160.00825416666666,166.87161666666665,161.1141333333333,166.87161666666665
630.0,160.01545,167.737675,161.3117,167.737675
700.0,160.02322777777778,168.60489722222223,161.51392222222222,168.60489722222223
770.0,160.0322625,169.47237083333334,161.7194125,169.47237083333334
840.0,160.0497625,170.3415375,161.9469125,170.3415375
910.0,160.06968602389554,171.2099972214504,162.17847457627119,171.2099972214504
980.0,160.09302584051125,172.07746040566823,162.4157627118644,172.07746040566823
1050.0,160.11636565712698,172.9449235898861,162.65305084745762,172.9449235898861
1120.0,160.14955,173.813825,162.9067,173.813825
1190.0,160.18606666666668,174.68223333333333,163.16412499999998,174.68223333333333
1260.0,160.23273333333333,175.54556666666667,163.426625,175.54556666666667
1330.0,160.28263333333334,176.41213333333334,163.69478333333333,176.41213333333334
1400.0,160.33707777777778,177.28324444444445,163.97089444444444,177.28324444444445
1470.0,160.39152222222222,178.15435555555555,164.24700555555555,178.15435555555555
1540.0,160.4591,179.023825,164.53625,179.023825
1610.0,160.53061666666667,179.89273888888889,164.82892777777778,179.89273888888889
1680.0,160.61228333333332,180.7599611111111,165.12837222222223,180.7599611111111
1750.0,160.69395,181.62718333333333,165.42781666666667,181.62718333333333
1820.0,160.78213333333332,182.49549166666665,165.73595,182.49549166666665
1890.0,160.87546666666665,183.36465833333332,166.05095,183.36465833333332
1960.0,160.983575,184.233825,166.370875,184.233825
2030.0,161.09567222222222,185.1027388888889,166.6934777777778,185.1027388888889
2100.0,161.2162277777778,185.9699611111111,167.02792222222223,185.9699611111111
2170.0,161.33678333333333,186.83718333333334,167.36236666666667,186.83718333333334
2240.0,161.46494166666665,187.70549166666666,167.69898333333333,187.70549166666666
2310.0,161.59910833333333,188.57465833333333,168.03731666666667,188.57465833333333
2380.0,161.74148333333335,189.44546666666668,168.38878333333332,189.44546666666668
2450.0,161.88537222222223,190.31657777777778,168.7426722222222,190.31657777777778
2520.0,162.03456666666668,191.18715833333331,169.100275,191.18715833333331
2590.0,162.1979,192.056325,169.467775,192.056325
2660.0,162.36449166666668,192.92549166666666,169.835275,192.92549166666666
2730.0,162.53365833333334,193.79465833333333,170.202775,193.79465833333333
2800.0,162.7176,194.66218333333333,170.58176666666665,194.66218333333333
2870.0,162.90426666666667,195.52940555555554,170.96287777777778,195.52940555555554
2940.0,163.092525,196.39875,171.34664166666667,196.39875
3010.0,163.285025,197.27375,171.737475,197.27375
3080.0,163.4873,198.14440555555555,172.13373888888887,198.14440555555555
3150.0,163.6973,199.01162777777776,172.53429444444444,199.01162777777776
3220.0,163.9073,199.87884999999997,172.93484999999998,199.87884999999997
3290.0,164.134575,200.74799166666665,173.3430833333333,200.74799166666665
3360.0,164.362075,201.61715833333332,173.75300833333333,201.61715833333332
3430.0,164.589575,202.486325,174.167175,202.486325
3500.0,164.82685,203.35875000000001,174.58242777777778,203.35875000000001
3570.0,165.07184999999998,204.23375000000001,174.99853888888887,204.23375000000001
3640.0,165.31685,205.10875000000001,175.41465,205.10875000000001
3710.0,165.56760833333334,205.97799166666667,175.8346,205.97799166666667
3780.0,165.82215555555555,206.8476888888889,176.2567222222222,206.8476888888889
3850.0,166.0866,207.71880000000002,176.68449999999999,207.71880000000002
3920.0,166.35104444444445,208.5899111111111,177.1122777777778,208.5899111111111
3990.0,166.62230833333334,209.45965833333332,177.546875,209.45965833333332
4060.0,166.896475,210.328825,177.984375,210.328825
4130.0,167.18215833333332,211.19799166666667,178.43339166666667,211.19799166666667
4200.0,167.46958333333333,212.0676888888889,178.8830888888889,212.0676888888889
4270.0,167.76125,212.93880000000001,179.33419999999998,212.93880000000001
4340.0,168.05291666666665,213.80991111111112,179.7853111111111,213.80991111111112
4410.0,168.35276666666667,214.67965833333332,180.24324166666668,214.67965833333332
4480.0,168.6561,215.548825,180.70407500000002,215.548825
4550.0,168.9671111111111,216.41991111111113,181.17450555555556,216.41991111111113
4620.0,169.27822222222224,217.29102222222224,181.64506111111112,217.29102222222224
4690.0,169.593375,218.161325,182.11885,218.161325
4760.0,169.91420833333333,219.03049166666668,182.59718333333333,219.03049166666668
4830.0,170.243225,219.90375,183.07960833333334,219.90375
4900.0,170.575725,220.77875,183.563775,220.77875
4970.0,170.91398333333333,221.64607222222222,184.0537,221.64607222222222
5040.0,171.25231666666667,222.51329444444445,184.5437,222.51329444444445
5110.0,171.5955,223.38375000000002,185.03612500000003,223.38375000000002
5180.0,171.9455,224.25875000000002,185.53195833333334,224.25875000000002
5250.0,172.30095555555556,225.13102222222224,186.0346111111111,225.13102222222224
5320.0,172.65873333333334,226.00213333333335,186.54016666666666,226.00213333333335
5390.0,173.01853333333332,226.87299166666665,187.04673333333332,226.87299166666665
5460.0,173.3918666666667,227.74215833333332,187.56006666666667,227.74215833333332
5530.0,173.76520000000002,228.611325,188.07340000000002,228.611325
5600.0,174.13853333333333,229.48049166666667,188.58673333333334,229.48049166666667
5670.0,174.52005,230.35102222222224,189.10825,230.35102222222224
5740.0,174.90505000000002,231.22213333333335,189.63325,231.22213333333335
5810.0,175.29156666666668,232.09375,190.15900833333333,232.09375
5880.0,175.68823333333333,232.96875,190.68984166666667,232.96875
5950.0,176.08651666666665,233.84213333333332,191.2231,233.84213333333332
6020.0,176.48707222222222,234.71324444444446,191.75976666666668,234.71324444444446
6090.0,176.88762777777777,235.58435555555556,192.29643333333334,235.58435555555556
6160.0,177.299675,236.453825,192.838025,236.453825
6230.0,177.71384166666667,237.32375000000002,193.38128333333333,237.32375000000002
6300.0,178.12800833333333,238.19875000000002,193.92961666666667,238.19875000000002
6370.0,178.54783333333333,239.07213333333334,194.47956666666667,239.07213333333334
6440.0,178.9756111111111,239.94324444444445,195.03178888888888,239.94324444444445
6510.0,179.40338888888888,240.81435555555555,195.5840111111111,240.81435555555555
6580.0,179.839375,241.68382499999998,196.1428,241.68382499999998
6650.0,180.2771277777778,242.55324444444446,196.70330555555554,242.55324444444446
6720.0,180.71657222222223,243.42435555555556,197.26719444444444,243.42435555555556
6790.0,181.15601666666666,244.29546666666667,197.83108333333334,244.29546666666667
6860.0,181.60415,245.16875000000002,198.3993166666667,245.16875000000002
6930.0,182.05915,246.04375000000002,198.97098333333335,246.04375000000002
7000.0,182.51415,246.913825,199.54757500000002,246.913825
7070.0,182.96965555555556,247.78425555555555,200.1243166666667,247.78425555555555
7140.0,183.42854444444444,248.66314444444444,200.69598333333334,248.66314444444444
7210.0,183.88743333333335,249.54203333333334,201.26765,249.54203333333334
7280.0,184.34415,250.41549166666667,201.83280000000002,250.41549166666667
7350.0,184.79915,251.28465833333334,202.3928,251.28465833333334
7420.0,185.26071666666667,252.15546666666665,202.95936666666665,252.15546666666665
7490.0,185.72349444444444,253.0265777777778,203.52714444444445,253.0265777777778
7560.0,186.188925,253.89875,204.097575,253.89875
7630.0,186.661425,254.77375,204.67507500000002,254.77375
7700.0,187.133925,255.64549166666666,205.252575,255.64549166666666
7770.0,187.606425,256.51465833333333,205.830075,256.51465833333333
7840.0,188.08385,257.3854666666667,206.41578333333334,257.3854666666667
7910.0,188.56218333333334,258.25657777777775,207.00300555555555,258.25657777777775
7980.0,189.04210833333335,259.12874999999997,207.59075833333335,259.12874999999997
8050.0,189.526275,260.00374999999997,208.179925,260.00374999999997
8120.0,190.01587222222224,260.87657777777775,208.77452222222223,260.87657777777775
8190.0,190.50976111111112,261.7476888888889,209.3734111111111,261.7476888888889
8260.0,191.00365,262.6188,209.9723,262.6188
8330.0,191.49945833333334,263.49375,210.57310833333332,263.49375
8400.0,191.99688333333336,264.36715833333335,211.17553333333333,264.36715833333335
8470.0,192.49855,265.236325,211.78220000000002,265.236325
8540.0,193.00456111111112,266.1065777777778,212.39103888888891,266.1065777777778
8610.0,193.51400555555557,266.9776888888889,213.00159444444446,266.9776888888889
8680.0,194.02345,267.84880000000004,213.61215,267.84880000000004
8750.0,194.53673333333333,268.72375,214.224625,268.72375
8820.0,195.05218888888888,269.5976888888889,214.83977777777778,269.5976888888889
8890.0,195.5733,270.46880000000004,215.462,270.46880000000004
8960.0,196.0944111111111,271.3399111111111,216.08422222222222,271.3399111111111
9030.0,196.62234166666667,272.21375,216.70780833333333,272.21375
9100.0,197.153175,273.08875,217.331975,273.08875
9170.0,197.68400833333334,273.95799166666666,217.96189999999999,273.95799166666666
9240.0,198.21643333333333,274.82874999999996,218.59189999999998,274.82874999999996
9310.0,198.7531,275.70374999999996,219.2219,275.70374999999996
9380.0,199.28976666666665,276.57874999999996,219.8519,276.57874999999996
9450.0,199.83461666666665,277.44965833333333,220.49008333333333,277.44965833333333
9520.0,200.38295,278.318825,221.13174999999998,278.318825
9590.0,200.93128333333334,279.19374999999997,221.76957777777778,279.19374999999997
9660.0,201.4796166666667,280.06874999999997,222.40735555555557,280.06874999999997
9730.0,202.03037500000002,280.941325,223.049175,280.941325
9800.0,202.58454166666667,281.8104916666667,223.696675,281.8104916666667
9870.0,203.1428,282.68375,224.344175,282.68375
9940.0,203.70280000000002,283.55875,224.99167500000001,283.55875
10010.0,204.26632981676846,284.4294336479733,225.64457523598003,284.4294336479733
10080.0,204.82990560799556,285.30006107717935,226.29754580788452,285.30006107717935
10150.0,205.39683333333332,286.1725,226.95308333333332,286.1725
10220.0,205.96849999999998,287.0475,227.61225000000002,287.0475
10290.0,206.54288888888888,287.91977777777777,228.27005555555556,287.91977777777777
10360.0,207.11844444444444,288.7908888888889,228.9272777777778,288.7908888888889
10430.0,207.695,289.6625,229.5855,289.6625
10500.0,208.27833333333334,290.5375,230.2505,290.5375
10570.0,208.86166666666668,291.4100833333333,230.91791666666666,291.4100833333333
10640.0,209.445,292.27925000000005,231.58875,292.27925000000005
10710.0,210.02833333333334,293.15794444444447,232.25277777777777,293.15794444444447
10780.0,210.61166666666668,294.04072222222226,232.9138888888889,294.04072222222226
10850.0,211.1935,294.92175,233.57250000000002,294.92175
10920.0,211.76516666666666,295.7909166666667,234.21416666666667,295.7909166666667
10990.0,212.33844444444443,296.6625,234.85905555555556,296.6625
11060.0,212.91400000000002,297.5375,235.5085,297.5375
11130.0,213.48955555555557,298.4125,236.15794444444444,298.4125
11200.0,214.0716666666667,299.2825833333334,236.81558333333334,299.2825833333334
11270.0,214.65425000000002,300.15250000000003,237.47475,300.15250000000003
11340.0,215.23175,301.02750000000003,238.13391666666666,301.02750000000003
11410.0,215.81327777777778,301.9008888888889,238.7938888888889,301.9008888888889
11480.0,216.4005,302.772,239.455,302.772
11550.0,216.98772222222223,303.64311111111107,240.1161111111111,303.64311111111107
11620.0,217.5815,304.5175,240.78541666666666,304.5175
11690.0,218.1765,305.392,241.45600000000002,305.392
11760.0,218.7715,306.2631111111111,242.1248888888889,306.2631111111111
11830.0,219.3665,307.1342222222222,242.7937777777778,307.1342222222222
11900.0,219.9615,308.0075,243.467,308.0075
11970.0,220.5565,308.8825,244.14366666666666,308.8825
12040.0,221.16133333333335,309.7575,244.82033333333334,309.7575
12110.0,221.768,310.632,245.498,310.632
12180.0,222.37466666666666,311.5031111111111,246.18244444444443,311.5031111111111
12250.0,222.98133333333334,312.3742222222222,246.86688888888887,312.3742222222222
12320.0,223.59125,313.2475,247.55025,313.2475
12390.0,224.20375,314.1225,248.23275,314.1225
12460.0,224.8178888888889,314.9942222222222,248.92016666666666,314.9942222222222
12530.0,225.43233333333333,315.86533333333335,249.60850000000002,315.86533333333335
12600.0,226.04783333333333,316.7375,250.29683333333335,316.7375
12670.0,226.66616666666667,317.6125,250.98516666666666,317.6125
12740.0,227.28775,318.4875,251.67675,318.4875
12810.0,227.91191666666666,319.3625,252.37091666666666,319.3625
12880.0,228.53772222222221,320.23422222222223,253.0667222222222,320.23422222222223
12950.0,229.16383333333334,321.10533333333336,253.76283333333333,321.10533333333336
13020.0,229.79258333333334,321.9775,254.46,321.9775
13090.0,230.42841666666666,322.8525,255.16,322.8525
13160.0,231.06316666666666,323.72533333333337,255.86216666666667,323.72533333333337
13230.0,231.69705555555555,324.59644444444444,256.5660555555555,324.59644444444444
13300.0,232.33094444444444,325.4675555555556,257.26994444444443,325.4675555555556
13370.0,232.9725,326.34250000000003,257.97575,326.34250000000003
13440.0,233.61416666666668,327.21750000000003,258.6815833333333,327.21750000000003
13510.0,234.25583333333333,328.09250000000003,259.38741666666664,328.09250000000003
13580.0,234.89966666666666,328.9653333333334,260.0965,328.9653333333334
13650.0,235.5452222222222,329.83644444444445,260.80816666666664,329.83644444444445
13720.0,236.19077777777775,330.7075555555556,261.5198333333333,330.7075555555556
13790.0,236.844,331.58250000000004,262.2315,331.58250000000004
13860.0,237.49733333333333,332.45750000000004,262.9442222222222,332.45750000000004
13930.0,238.15066666666667,333.33250000000004,263.6597777777778,333.33250000000004
14000.0,238.804,334.20750000000004,264.3753333333333,334.20750000000004
14070.0,239.45733333333334,335.07841666666667,265.0963333333333,335.07841666666667
14140.0,240.11066666666667,335.94758333333334,265.81966666666665,335.94758333333334
14210.0,240.7755,336.8225,266.53725,336.8225
14280.0,241.44043165467625,337.69784172661866,267.2568345323741,337.69784172661866
14350.0,242.10517985611511,338.57410071942445,267.98201438848923,338.57410071942445
