Time (s),T_min (C),T_max (C),T_ave (C),Thermal_Input (C)
0.0,400.0,400.0,400.0,400.0
145.45454545454547,400.0,401.9399757575758,400.1526181818182,401.9399757575758
290.90909090909093,400.0,403.93755151515154,400.41443636363636,403.93755151515154
436.3636363636364,400.0,405.9324606060606,400.7259878787879,405.9324606060606
581.8181818181819,400.0,407.93003636363636,401.0944727272728,407.93003636363636
727.2727272727274,400.00023376623375,409.92511688311686,401.49981818181817,409.92511688311686
872.7272727272727,400.0111636363636,411.92985454545453,401.9385090909091,411.92985454545453
1018.1818181818182,400.0305974025974,413.92764935064935,402.41433766233763,413.92764935064935
1163.6363636363637,400.0525696969697,415.9323393939394,402.9146909090909,415.9323393939394
1309.0909090909092,400.09181818181816,417.93018181818184,403.4396363636364,417.93018181818184
1454.5454545454547,400.1452727272727,419.93537662337667,404.00142857142856,419.93537662337667
1600.0000000000002,400.21959999999996,421.9408,404.5761333333333,421.9408
1745.4545454545455,400.3081818181818,423.9479090909091,405.1782727272727,423.9479090909091
1890.909090909091,400.41465454545454,425.95334545454546,405.7944,425.95334545454546
2036.3636363636365,400.5432467532467,427.9604415584416,406.43651948051945,427.9604415584416
2181.818181818182,400.70036363636365,429.9656363636364,407.10272727272724,429.9656363636364
2327.2727272727275,400.8710303030303,431.9711636363636,407.7817090909091,431.9711636363636
2472.727272727273,401.0680909090909,433.97816883116883,408.4822987012987,433.97816883116883
2618.1818181818185,401.2886909090909,435.9837090909091,409.2025212121212,435.9837090909091
2763.636363636364,401.52506493506496,437.9907012987013,409.94238961038957,437.9907012987013
2909.0909090909095,401.78838961038963,439.9958961038961,410.70262337662336,439.9958961038961
3054.545454545455,402.0731272727273,442.0015272727273,411.47494545454543,442.0015272727273
3200.0000000000005,402.37942857142855,444.00842857142857,412.263,444.00842857142857
3345.454545454546,402.7154909090909,446.0140727272727,413.06824242424244,446.0140727272727
3490.909090909091,403.0672727272727,448.0228831168831,413.89376623376626,448.0228831168831
3636.3636363636365,403.4378441558442,450.0361558441558,414.7295584415585,450.0361558441558
3781.818181818182,403.8358909090909,452.0418909090909,415.5843878787879,452.0418909090909
3927.2727272727275,404.24981818181817,454.0486883116883,416.452012987013,454.0486883116883
4072.727272727273,404.69134545454546,456.0570181818182,417.3401090909091,456.0570181818182
4218.181818181819,405.1523116883117,458.0712207792208,418.24485714285714,458.0712207792208
4363.636363636364,405.63306493506497,460.07641558441554,419.1619740259741,460.07641558441554
4509.09090909091,406.1293212121212,462.08225454545453,420.0915878787879,462.08225454545453
4654.545454545455,406.6505974025974,464.09184415584417,421.03644155844154,464.09184415584417
4800.0,407.1948,466.1048,421.99666666666667,466.1048
4945.454545454546,407.7528571428571,468.11148051948055,422.9712987012987,468.11148051948055
5090.909090909091,408.33433766233765,470.120025974026,423.96166233766235,470.120025974026
5236.363636363637,408.9399272727273,472.1326181818182,424.96305454545455,472.1326181818182
5381.818181818182,409.5549350649351,474.1426233766234,425.97814285714287,474.1426233766234
5527.272727272728,410.1879515151515,476.1551636363637,427.0100121212121,476.1551636363637
5672.727272727273,410.84623376623375,478.16174025974027,428.05153246753247,478.16174025974027
5818.181818181819,411.52542857142856,480.1708051948052,429.10862337662337,480.1708051948052
5963.636363636364,412.21625454545455,482.1829818181818,430.1813090909091,482.1829818181818
6109.09090909091,412.92151948051946,484.1934025974026,431.2631818181818,484.1934025974026
6254.545454545455,413.64676363636363,486.2055272727273,432.35610909090906,486.2055272727273
6400.000000000001,414.392,488.216,433.462,488.216
6545.454545454546,415.15483116883115,490.2271948051948,434.58407792207794,490.2271948051948
6690.909090909092,415.9357696969697,492.2333454545455,435.7118909090909,492.2333454545455
6836.363636363637,416.733,494.2441818181818,436.8544545454546,494.2441818181818
6981.818181818182,417.544303030303,496.2558909090909,438.0125454545455,496.2558909090909
7127.272727272728,418.3715584415584,498.2487012987013,439.1761818181818,498.2487012987013
7272.727272727273,419.2125454545455,499.31454545454545,440.276,499.31454545454545
7418.181818181819,420.0750909090909,499.35483636363637,441.2597090909091,499.35483636363637
7563.636363636364,420.9527922077922,499.37497402597404,442.17776623376625,499.37497402597404
7709.09090909091,421.8405575757576,499.3900121212121,443.04552727272727,499.3900121212121
7854.545454545455,422.7434285714286,499.40503896103894,443.8831168831169,499.40503896103894
8000.000000000001,423.6631428571429,499.4154285714286,444.69257142857145,499.4154285714286
8145.454545454546,424.58587878787876,499.42543030303034,445.4744242424242,499.42543030303034
8290.909090909092,425.5144155844156,499.4354935064935,446.24102597402594,499.4354935064935
8436.363636363638,426.4471272727273,499.4454909090909,446.9928,499.4454909090909
8581.818181818182,427.3802597402597,499.4555584415584,447.7290909090909,499.4555584415584
8727.272727272728,428.30937662337664,499.46,448.4504155844156,499.46
8872.727272727274,429.2378545454546,499.46591515151516,449.15589090909094,499.46591515151516
9018.18181818182,430.15914285714285,499.476012987013,449.8468571428572,499.476012987013
9163.636363636364,431.0717212121212,499.4859757575758,450.52830303030305,499.4859757575758
9309.09090909091,431.97877922077924,499.49,451.198987012987,499.49
9454.545454545456,432.8762077922078,499.49646753246753,451.8574545454545,499.49646753246753
9600.0,433.7624,499.5064,452.5088,499.5064
9745.454545454546,434.6387272727273,499.51653246753244,453.14848051948053,499.51653246753244
9890.909090909092,435.50499393939396,499.52,453.7799393939394,499.52
10036.363636363638,436.3675844155844,499.52659740259736,454.4058441558442,499.52659740259736
10181.818181818182,437.21594805194803,499.53,455.01524675324674,499.53
10327.272727272728,438.05209696969695,499.5368848484849,455.6168606060606,499.5368848484849
10472.727272727274,438.8771038961039,499.54705194805194,456.219012987013,499.54705194805194
10618.18181818182,439.6934181818182,499.55,456.8067272727273,499.55
10763.636363636364,440.5051168831169,499.55711688311686,457.38854545454546,499.55711688311686
10909.09090909091,441.3004935064935,499.56,457.95535064935063,499.56
11054.545454545456,442.08694545454546,499.5673696969697,458.51744242424246,499.5673696969697
11200.000000000002,442.86028571428574,499.5775714285714,459.07885714285715,499.5775714285714
11345.454545454546,443.6269939393939,499.58,459.62609696969696,499.58
11490.909090909092,444.37981818181817,499.58763636363636,460.1670909090909,499.58763636363636
11636.363636363638,445.12787012987013,499.59,460.6993246753247,499.59
11781.818181818182,445.85909090909087,499.59785454545454,461.232,499.59785454545454
11927.272727272728,446.58636363636367,499.6,461.7545454545455,499.6
12072.727272727274,447.3057212121212,499.60791515151516,462.2615878787879,499.60791515151516
12218.18181818182,448.00644155844157,499.61,462.7696363636364,499.61
12363.636363636364,448.7025454545455,499.6185454545455,463.2701818181818,499.6185454545455
12509.09090909091,449.392096969697,499.62,463.7569696969697,499.62
12654.545454545456,450.06967532467536,499.6286103896104,464.2446883116883,499.6286103896104
12800.000000000002,450.73960000000005,499.63,464.7216,499.63
12945.454545454546,451.3965454545455,499.6386753246753,465.19906493506494,499.6386753246753
13090.909090909092,452.05109090909093,499.64,465.66792207792207,499.64
13236.363636363638,452.6924,499.6488242424242,466.1247393939394,499.6488242424242
13381.818181818184,453.32692207792206,499.65,466.58171428571427,499.65
13527.272727272728,453.9575151515151,499.6588848484849,467.028703030303,499.6588848484849
13672.727272727274,454.5724935064935,499.66,467.46618181818184,499.66
13818.18181818182,455.1758961038961,499.66958441558444,467.9025454545455,499.66958441558444
13963.636363636364,455.77716363636364,499.67,468.3389090909091,499.67
14109.09090909091,456.37001298701296,499.67964935064936,468.755974025974,499.67964935064936
14254.545454545456,456.96155151515154,499.68,469.18226666666664,499.68
14400.0,457.54,499.68,469.59,499.68
