Time (s),T_min (C),T_max (C),T_ave (C),Thermal_Input (C)
0.0,100.0,100.0,100.0,100.0
145.45454545454547,100.0,101.29423087142123,100.12281022867501,101.29423087142123
290.90909090909093,100.0,102.62201454545455,100.32562727272727,102.62201454545455
436.3636363636364,100.00015957575758,103.95186187878788,100.57478727272726,103.95186187878788
581.8181818181819,100.00985654545455,105.28034672727273,100.86569636363637,105.28034672727273
727.2727272727274,100.02044036363635,106.61016490909091,101.18792654545456,106.61016490909091
872.7272727272727,100.0398343030303,107.93864975757576,101.53701745454546,107.93864975757576
1018.1818181818182,100.0817922077922,109.27823376623377,101.91135064935065,109.27823376623377
1163.6363636363637,100.14513939393939,110.60865454545454,102.30762424242424,110.60865454545454
1309.0909090909092,100.22327272727273,111.94654545454546,102.72527272727272,111.94654545454546
1454.5454545454547,100.3191393939394,113.27701818181819,103.16374545454545,113.27701818181819
1600.0000000000002,100.446,114.61485714285715,103.62971428571429,114.61485714285715
1745.4545454545455,100.5930909090909,115.94554545454545,104.10845454545453,115.94554545454545
1890.909090909091,100.76141818181817,117.28556363636363,104.59974545454546,117.28556363636363
2036.3636363636365,100.94766233766235,118.62303896103897,105.11503896103895,118.62303896103897
2181.818181818182,101.15850909090909,119.95392727272728,105.64770909090909,119.95392727272728
2327.2727272727275,101.3937012987013,121.2922987012987,106.20119480519482,121.2922987012987
2472.727272727273,101.6561168831169,122.63255844155844,106.76490909090909,122.63255844155844
2618.1818181818185,101.93836363636363,123.97086060606061,107.3483393939394,123.97086060606061
2763.636363636364,102.23348051948052,125.30093506493508,107.94275324675324,125.30093506493508
2909.0909090909095,102.55854545454545,126.64083636363637,108.55705454545455,126.64083636363637
3054.545454545455,102.90136363636363,127.9793116883117,109.17951948051949,127.9793116883117
3200.0000000000005,103.26685714285715,129.31957142857144,109.81700000000001,129.31957142857144
3345.454545454546,103.64597575757575,130.65938181818183,110.47469090909091,130.65938181818183
3490.909090909091,104.04688311688312,131.99602597402597,111.14685714285714,131.99602597402597
3636.3636363636365,104.46924848484849,133.32774545454546,111.83318787878788,133.32774545454546
3781.818181818182,104.91544155844156,134.66632467532466,112.52511688311688,134.66632467532466
3927.2727272727275,105.36932467532468,136.0065844155844,113.23636363636363,136.0065844155844
4072.727272727273,105.8490909090909,137.34629090909092,113.96363636363635,137.34629090909092
4218.181818181819,106.33963636363636,138.68496103896103,114.69579220779221,138.68496103896103
4363.636363636364,106.85269090909091,140.02465454545455,115.44610909090909,140.02465454545455
4509.09090909091,107.38033766233767,141.36333766233767,116.20548051948052,141.36333766233767
4654.545454545455,107.9263896103896,142.7035974025974,116.97720779220779,142.7035974025974
4800.0,108.49093333333333,144.04626666666667,117.76146666666666,144.04626666666667
4945.454545454546,109.06581818181819,145.39197402597404,118.54911688311688,145.39197402597404
5090.909090909091,109.65076363636364,146.73156363636366,119.32330909090909,146.73156363636366
5236.363636363637,110.2455064935065,148.07035064935067,120.11602597402597,148.07035064935067
5381.818181818182,110.85493506493506,149.41061038961038,120.92641558441558,149.41061038961038
5527.272727272728,111.4808484848485,150.7501090909091,121.74187878787879,150.7501090909091
5672.727272727273,112.11579220779221,152.08898701298702,122.57192207792208,152.08898701298702
5818.181818181819,112.76562424242424,153.42847272727275,123.41425454545454,153.42847272727275
5963.636363636364,113.42690909090909,154.76736363636363,124.26427272727273,154.76736363636363
6109.09090909091,114.09971428571428,156.10762337662337,125.12661038961039,156.10762337662337
6254.545454545455,114.79061818181819,157.44701818181818,125.9973090909091,157.44701818181818
6400.000000000001,115.492,158.786,126.88000000000001,158.786
6545.454545454546,116.20317575757576,160.12947878787878,127.76692121212122,160.12947878787878
6690.909090909092,116.92454545454547,161.47437662337663,128.66364935064937,161.47437662337663
6836.363636363637,117.66072727272729,162.81463636363637,129.572,162.81463636363637
6981.818181818182,118.41265454545454,164.1539272727273,130.48951515151515,164.1539272727273
7127.272727272728,119.17444155844156,165.49301298701297,131.41675324675325,165.49301298701297
7272.727272727273,119.94654545454546,166.83687272727272,132.34985454545455,166.83687272727272
7418.181818181819,120.72841558441559,168.18138961038963,133.29176623376623,168.18138961038963
7563.636363636364,121.523,169.52164935064934,134.24263636363636,169.52164935064934
7709.09090909091,122.32550303030303,170.86083636363637,135.19559999999998,170.86083636363637
7854.545454545455,123.13807792207793,172.20506493506494,136.16366233766234,172.20506493506494
8000.000000000001,123.96573333333333,173.5492,137.13666666666666,173.5492
8145.454545454546,124.80341558441559,174.8884025974026,138.11487012987013,174.8884025974026
8290.909090909092,125.65046753246753,176.22866233766234,139.10737662337664,176.22866233766234
8436.363636363638,126.50869090909092,177.57323636363637,140.10007272727273,177.57323636363637
8581.818181818182,127.3769090909091,178.91703896103897,141.09916883116884,178.91703896103897
8727.272727272728,128.24963636363637,180.2561090909091,142.1073575757576,180.2561090909091
8872.727272727274,129.1336103896104,181.60103896103897,143.12109090909092,181.60103896103897
9018.18181818182,130.0271168831169,182.94567532467534,144.14528571428573,182.94567532467534
9163.636363636364,130.9317212121212,184.28465454545454,145.1734303030303,184.28465454545454
9309.09090909091,131.84485714285714,185.63012987012988,146.2077922077922,185.63012987012988
9454.545454545456,132.76345454545455,186.9730181818182,147.25192727272727,186.9730181818182
9600.0,133.69285714285712,188.31242857142857,148.29428571428573,188.31242857142857
9745.454545454546,134.62792207792208,189.6592207792208,149.3463116883117,189.6592207792208
9890.909090909092,135.54729696969696,191.00802424242426,150.36544242424242,191.00802424242426
10036.363636363638,136.45397402597402,192.35766233766236,151.37654545454546,192.35766233766236
10181.818181818182,137.36951515151515,193.69992727272728,152.39472727272727,193.69992727272728
10327.272727272728,138.29294805194806,195.03944155844155,153.41957142857143,195.03944155844155
10472.727272727274,139.21762337662338,196.3797012987013,154.45519480519482,196.3797012987013
10618.18181818182,140.14676363636363,197.72541818181818,155.50010909090912,197.72541818181818
10763.636363636364,141.08763636363636,199.04672727272728,156.5488051948052,199.04672727272728
10909.09090909091,142.02958787878788,199.4450303030303,157.51258181818184,199.4450303030303
11054.545454545456,142.98072727272728,199.4671818181818,158.40327272727274,199.4671818181818
11200.000000000002,143.93657142857143,199.48514285714288,159.23814285714286,199.48514285714288
11345.454545454546,144.9030303030303,199.4974303030303,160.03928484848484,199.4974303030303
11490.909090909092,145.87018181818183,199.50763636363635,160.8227272727273,199.50763636363635
11636.363636363638,146.8316,199.51749090909092,161.57680000000002,199.51749090909092
11781.818181818182,147.78851948051948,199.5277012987013,162.3090909090909,199.5277012987013
11927.272727272728,148.73627272727273,199.5380909090909,163.02827272727274,199.5380909090909
12072.727272727274,149.6777696969697,199.54791515151516,163.7298909090909,199.54791515151516
12218.18181818182,150.5977142857143,199.55815584415583,164.41012987012988,199.55815584415583
12363.636363636364,151.5097212121212,199.56797575757577,165.08032727272726,199.56797575757577
12509.09090909091,152.41520779220778,199.5782207792208,165.73790909090908,199.5782207792208
12654.545454545456,153.29327272727272,199.58,166.38384415584417,199.58
12800.000000000002,154.16600000000003,199.5884,167.00760000000002,199.5884
12945.454545454546,155.02137662337663,199.59867532467533,167.6305194805195,199.59867532467533
13090.909090909092,155.85761212121213,199.60846060606062,168.2345575757576,199.60846060606062
13236.363636363638,156.68048051948054,199.61,168.8281948051948,199.61
13381.818181818184,157.49212987012987,199.61912987012988,169.41127272727275,199.61912987012988
13527.272727272728,158.28855757575758,199.62888484848486,169.98420606060608,199.62888484848486
13672.727272727274,159.0604155844156,199.63,170.5465194805195,199.63
13818.18181818182,159.82669090909093,199.63894545454545,171.0998909090909,199.63894545454545
13963.636363636364,160.5767012987013,199.64925974025974,171.6415064935065,199.64925974025974
14109.09090909091,161.3151038961039,199.65,172.17211688311687,199.65
14254.545454545456,162.0427272727273,199.6593696969697,172.68659393939393,199.6593696969697
14400.0,162.75,199.67,173.2,199.67
