Time (s),T_min (C),T_max (C),T_ave (C),Thermal_Input (C)
0,450.0,450.0,450.0,450.0
70,450.0,452.09027777777777,450.16527777777776,452.09027777777777
140,450.0,454.18055555555554,450.3305555555555,454.18055555555554
210,450.0,455.4484,450.538,455.4484
280,450.0,456.6664,450.748,456.6664
350,450.0,457.51800000000003,450.934,457.51800000000003
420,450.0,458.278,451.114,458.278
490,450.0,458.93773333333337,451.29186666666664,458.93773333333337
560,450.0,459.5724,451.4692,459.5724
630,450.0032857142857,460.2007142857143,451.645,460.2007142857143
700,450.0082857142857,460.8257142857143,451.82,460.8257142857143
770,450.0132857142857,461.339,451.9884285714286,461.339
840,450.0182857142857,461.794,452.15342857142855,461.794
910,450.0292,462.2444,452.31426666666664,462.2444
980,450.0432,462.6924,452.47293333333334,462.6924
1050,450.05771428571427,463.1414285714286,452.63228571428573,463.1414285714286
1120,450.07271428571426,463.5914285714286,452.7922857142857,463.5914285714286
1190,450.0944,464.038,452.954,464.038
1260,450.12239999999997,464.48133333333334,453.11733333333336,464.48133333333334
1330,450.1511428571429,464.9252857142857,453.28128571428573,464.9252857142857
1400,450.18114285714285,465.37028571428567,453.44628571428575,465.37028571428567
1470,450.2148571428571,465.78,453.60942857142857,465.78
1540,450.25485714285713,466.13,453.7694285714286,466.13
1610,450.2973333333333,466.47653333333335,453.92893333333336,466.47653333333335
1680,450.344,466.8172,454.0876,466.8172
1750,450.39142857142855,467.15885714285713,454.24542857142853,467.15885714285713
1820,450.44142857142856,467.5038571428571,454.40042857142856,467.5038571428571
1890,450.4938666666667,467.8489333333333,454.55626666666666,467.8489333333333
1960,450.5545333333333,468.19426666666664,454.7149333333333,468.19426666666664
2030,450.61557142857146,468.53914285714285,454.8732857142857,468.53914285714285
2100,450.68057142857145,468.8791428571428,455.02828571428574,468.8791428571428
2170,450.746,469.2152857142857,455.1832857142857,469.2152857142857
2240,450.816,469.5102857142857,455.33828571428575,469.5102857142857
2310,450.8868,469.8048,455.4936,469.8048
2380,450.96613333333335,470.09413333333333,455.65226666666666,470.09413333333333
2450,451.0454666666667,470.38346666666666,455.8109333333333,470.38346666666666
2520,451.1254285714286,470.6734285714286,455.96614285714287,470.6734285714286
2590,451.20542857142857,470.9634285714286,456.12114285714284,470.9634285714286
2660,451.2892,471.25280000000004,456.2752,471.25280000000004
2730,451.3732,471.54213333333337,456.4292,471.54213333333337
2800,451.462,471.832,456.584,471.832
2870,451.552,472.122,456.739,472.122
2940,451.646,472.384,456.894,472.384
3010,451.741,472.639,457.049,472.639
3080,451.8384,472.8953333333333,457.2032,472.8953333333333
3150,451.93640000000005,473.152,457.35720000000003,473.152
3220,452.03571428571433,473.40757142857143,457.5118571428572,473.40757142857143
3290,452.1357142857143,473.6625714285714,457.66685714285717,473.6625714285714
3360,452.23746666666665,473.9186666666667,457.8242666666667,473.9186666666667
3430,452.3401333333333,474.17533333333336,457.98293333333334,474.17533333333336
3500,452.4465714285714,474.43114285714285,458.13971428571426,474.43114285714285
3570,452.55657142857143,474.68614285714284,458.2947142857143,474.68614285714284
3640,452.66657142857144,474.9308571428571,458.44971428571426,474.9308571428571
3710,452.7765714285714,475.16585714285713,458.6047142857143,475.16585714285713
3780,452.88759999999996,475.39759999999995,458.7592,475.39759999999995
3850,452.9996,475.62626666666665,458.9132,475.62626666666665
3920,453.1127142857143,475.8572857142857,459.0675714285714,475.8572857142857
3990,453.2277142857143,476.0922857142857,459.2225714285714,476.0922857142857
4060,453.3450666666667,476.3249333333333,459.3772,476.3249333333333
4130,453.4664,476.5536,459.53119999999996,476.5536
4200,453.5874285714286,476.7837142857143,459.6865714285714,476.7837142857143
4270,453.7074285714286,477.0187142857143,459.84657142857145,477.0187142857143
4340,453.8274285714286,477.248,460.0054285714286,477.248
4410,453.9474285714286,477.45799999999997,460.16042857142855,477.45799999999997
4480,454.0688,477.66906666666665,460.3152,477.66906666666665
4550,454.1948,477.88373333333334,460.4692,477.88373333333334
4620,454.3207142857143,478.09799999999996,460.6232857142857,478.09799999999996
4690,454.4457142857143,478.308,460.77828571428574,478.308
4760,454.5708,478.5184,460.9332,478.5184
4830,454.6968,478.7330666666667,461.0872,478.7330666666667
4900,454.8228,478.9477333333333,461.2412,478.9477333333333
4970,454.9525714285714,479.158,461.40085714285715,479.158
5040,455.0825714285714,479.368,461.5608571428571,479.368
5110,455.2172857142857,479.56857142857143,461.71614285714287,479.56857142857143
5180,455.3522857142857,479.7685714285714,461.87114285714284,479.7685714285714
5250,455.4832,479.96479999999997,462.0252,479.96479999999997
5320,455.61386666666664,480.1608,462.1792,480.1608
5390,455.748,480.36,462.334,480.36
5460,455.88300000000004,480.56,462.489,480.56
5530,456.0182666666667,480.7568,462.6469333333333,480.7568
5600,456.1536,480.95279999999997,462.8056,480.95279999999997
5670,456.28871428571426,481.15142857142854,462.9618571428572,481.15142857142854
5740,456.4237142857143,481.3514285714286,463.11685714285716,481.3514285714286
5810,456.562,481.54157142857144,463.2718571428572,481.54157142857144
5880,456.702,481.72657142857145,463.42685714285716,481.72657142857145
5950,456.83893333333333,481.91266666666667,463.5812,481.91266666666667
6020,456.97426666666667,482.09933333333333,463.7352,482.09933333333333
6090,457.112,482.28514285714283,463.8922857142857,482.28514285714283
6160,457.252,482.47014285714283,464.0522857142857,482.47014285714283
6230,457.392,482.656,464.2092,482.656
6300,457.532,482.8426666666667,464.3632,482.8426666666667
6370,457.6738571428572,483.0305714285714,464.5175714285714,483.0305714285714
6440,457.81885714285715,483.2205714285714,464.6725714285714,483.2205714285714
6510,457.96200000000005,483.405,464.8275714285714,483.405
6580,458.10200000000003,483.58,464.9825714285714,483.58
6650,458.24373333333335,483.7558666666667,465.13893333333334,483.7558666666667
6720,458.3884,483.9332,465.2976,483.9332
6790,458.5331428571429,484.11,465.45542857142857,484.11
6860,458.67814285714286,484.285,465.6104285714286,484.285
6930,458.8230666666667,484.46053333333333,465.7652,484.46053333333333
7000,458.96773333333334,484.6378666666667,465.9192,484.6378666666667
7070,459.1124285714286,484.815,466.0732857142857,484.815
7140,459.2574285714286,484.99,466.22828571428573,484.99
7210,459.4024285714286,485.16457142857143,466.3832857142857,485.16457142857143
7280,459.54742857142855,485.33457142857145,466.53828571428573,485.33457142857145
7350,459.6924,485.50440000000003,466.6932,485.50440000000003
7420,459.83706666666666,485.67240000000004,466.8472,485.67240000000004
7490,459.98173333333335,485.84040000000005,467.0012,485.84040000000005
7560,460.1314285714286,486.00557142857144,467.15614285714287,486.00557142857144
7630,460.2814285714286,486.17057142857146,467.31114285714284,486.17057142857146
7700,460.4264,486.33840000000004,467.4696,486.33840000000004
7770,460.5710666666667,486.50640000000004,467.62826666666666,486.50640000000004
7840,460.72,486.672,467.78400000000005,486.672
7910,460.87,486.837,467.939,486.837
7980,461.02,486.998,468.09000000000003,486.998
8050,461.16999999999996,487.158,468.24,487.158
8120,461.31946666666664,487.3206666666667,468.3932,487.3206666666667
8190,461.4688,487.48400000000004,468.54720000000003,487.48400000000004
8260,461.6152857142857,487.6451428571429,468.7018571428572,487.6451428571429
8330,461.7602857142857,487.80514285714287,468.85685714285717,487.80514285714287
8400,461.90813333333335,487.9642666666667,469.01120000000003,487.9642666666667
8470,462.05746666666664,488.1229333333333,469.1652,488.1229333333333
8540,462.20714285714286,488.2822857142857,469.31971428571427,488.2822857142857
8610,462.3571428571429,488.4422857142857,469.4747142857143,488.4422857142857
8680,462.50971428571427,488.59971428571424,469.6297142857143,488.59971428571424
8750,462.6647142857143,488.7547142857143,469.7847142857143,488.7547142857143
8820,462.8168,488.9092,469.9392,488.9092
8890,462.96613333333335,489.0632,470.0932,489.0632
8960,463.11571428571426,489.21757142857143,470.24571428571426,489.21757142857143
9030,463.2657142857143,489.37257142857146,470.3957142857143,489.37257142857146
9100,463.4154666666667,489.52720000000005,470.54720000000003,489.52720000000005
9170,463.5648,489.6812,470.7012,489.6812
9240,463.7142857142857,489.8342857142857,470.8542857142857,489.8342857142857
9310,463.86428571428576,489.98428571428576,471.00428571428574,489.98428571428576
9380,464.0154285714286,490.13428571428574,471.15542857142856,490.13428571428574
9450,464.1704285714286,490.2842857142857,471.3104285714286,490.2842857142857
9520,464.32413333333335,490.4341333333333,471.46413333333334,490.4341333333333
9590,464.4734666666667,490.58346666666665,471.6134666666667,490.58346666666665
9660,464.62285714285713,490.7324285714286,471.7632857142857,490.7324285714286
9730,464.77285714285716,490.8774285714286,471.91828571428573,490.8774285714286
9800,464.9232,491.0228,472.07280000000003,491.0228
9870,465.0772,491.1721333333333,472.2221333333333,491.1721333333333
9940,465.2312,491.32146666666665,472.37146666666666,491.32146666666665
10010,465.3814285714286,491.46671428571426,472.5261428571429,491.46671428571426
10080,465.5314285714286,491.6117142857143,472.68114285714285,491.6117142857143
10150,465.6861428571429,491.7567142857143,472.83142857142855,491.7567142857143
10220,465.84114285714287,491.9017142857143,472.9814285714286,491.9017142857143
10290,465.99080000000004,492.0464,473.1308,492.0464
10360,466.1401333333333,492.1910666666667,473.2801333333333,492.1910666666667
10430,466.29400000000004,492.332,473.43,492.332
10500,466.449,492.472,473.58000000000004,492.472
10570,466.5994666666667,492.6157333333333,473.72946666666667,492.6157333333333
10640,466.7488,492.7604,473.8788,492.7604
10710,466.9018571428572,492.9052857142857,474.02857142857147,492.9052857142857
10780,467.05685714285715,493.05028571428574,474.17857142857144,493.05028571428574
10850,467.2085714285714,493.1887142857143,474.3285714285714,493.1887142857143
10920,467.35857142857145,493.3237142857143,474.4785714285714,493.3237142857143
10990,467.5081333333334,493.462,474.6281333333333,493.462
11060,467.65746666666666,493.60200000000003,474.77746666666667,493.60200000000003
11130,467.8097142857143,493.73942857142856,474.9271428571429,493.73942857142856
11200,467.9647142857143,493.87442857142855,475.07714285714286,493.87442857142855
11270,468.1168,494.012,475.22679999999997,494.012
11340,468.26613333333336,494.152,475.37613333333337,494.152
11410,468.4175714285714,494.29200000000003,475.52385714285714,494.29200000000003
11480,468.57257142857145,494.432,475.6688571428571,494.432
11550,468.7257142857143,494.57014285714286,475.8157142857143,494.57014285714286
11620,468.8757142857143,494.70514285714285,475.9657142857143,494.70514285714285
11690,469.0254666666667,494.8385333333334,476.1154666666667,494.8385333333334
11760,469.1748,494.9692,476.2648,494.9692
11830,469.3254285714286,495.10085714285714,476.4131428571429,495.10085714285714
11900,469.4804285714286,495.2358571428571,476.55814285714285,495.2358571428571
11970,469.63413333333335,495.3709333333333,476.70413333333335,495.3709333333333
12040,469.7834666666667,495.50626666666665,476.8534666666667,495.50626666666665
12110,469.9328571428572,495.6415714285714,477.0024285714286,495.6415714285714
12180,470.08285714285716,495.7765714285714,477.1474285714286,495.7765714285714
12250,470.23285714285714,495.91114285714286,477.29242857142856,495.91114285714286
12320,470.3828571428571,496.04114285714286,477.43742857142854,496.04114285714286
12390,470.53319999999997,496.17080000000004,477.5824,496.17080000000004
12460,470.6872,496.2968,477.72706666666664,496.2968
12530,470.8412,496.4228,477.87173333333334,496.4228
12600,470.99142857142857,496.5525714285714,478.0214285714286,496.5525714285714
12670,471.14142857142855,496.6825714285714,478.1714285714286,496.6825714285714
12740,471.2908,496.8132,478.3164,496.8132
12810,471.44013333333334,496.9438666666667,478.4610666666667,496.9438666666667
12880,471.59000000000003,497.074,478.606,497.074
12950,471.74,497.204,478.751,497.204
13020,471.89,497.33000000000004,478.892,497.33000000000004
13090,472.03999999999996,497.45500000000004,479.032,497.45500000000004
13160,472.18946666666665,497.5808,479.1757333333333,497.5808
13230,472.3388,497.7068,479.3204,497.7068
13300,472.4885714285714,497.83542857142857,479.4652857142857,497.83542857142857
13370,472.6385714285714,497.96542857142856,479.61028571428574,497.96542857142856
13440,472.78813333333335,498.0928,479.75506666666666,498.0928
13510,472.93746666666664,498.2188,479.89973333333336,498.2188
13580,473.08714285714285,498.34428571428566,480.04200000000003,498.34428571428566
13650,473.2371428571429,498.46928571428566,480.182,498.46928571428566
13720,473.38714285714286,498.59428571428566,480.32457142857146,498.59428571428566
13790,473.53714285714284,498.71928571428566,480.46957142857144,498.71928571428566
13860,473.6868,498.8424,480.612,498.8424
13930,473.83613333333335,498.9637333333333,480.752,498.9637333333333
14000,473.9838571428572,499.0864285714286,480.89385714285714,499.0864285714286
14070,474.12885714285716,499.2114285714286,481.0388571428571,499.2114285714286
14140,474.2754666666667,499.33680000000004,481.182,499.33680000000004
14210,474.4248,499.4628,481.322,499.4628
14280,474.5741176470588,499.5882352941176,481.46294117647057,499.5882352941176
14350,474.7233823529412,499.7117647058824,481.6070588235294,499.7117647058824
