Time (s),T_min (C),T_max (C),T_ave (C),Thermal_Input (C)
0.0,150.0,150.0,150.0,150.0
70.0,150.0,152.09185993633469,150.1955434288313,152.09185993633469
140.0,150.0,154.1837198726694,150.39108685766257,154.1837198726694
210.0,150.0,155.52115,150.618235,155.52115
280.0,150.0,156.67115,150.853235,156.67115
350.0,150.0,157.50876,151.06821,157.50876
420.0,150.0,158.26876,151.27821,158.26876
490.0,150.003738,158.928368,151.48073399999998,158.928368
560.0,150.00840466666665,159.56303466666665,151.68140066666666,159.56303466666665
630.0,150.01987214285714,160.1913392857143,151.88162857142856,160.1913392857143
700.0,150.03487214285713,160.8163392857143,152.08162857142858,160.8163392857143
770.0,150.05535666666665,161.32791933333334,152.27285333333333,161.32791933333334
840.0,150.07869,161.780586,152.45952,161.780586
910.0,150.10803886547117,162.23192827034364,152.64534828891905,162.23192827034364
980.0,150.14304636707865,162.68202471958278,152.8303879402729,162.68202471958278
1050.0,150.18320714285713,163.12949285714285,153.01798571428571,163.12949285714285
1120.0,150.22820714285714,163.57449285714284,153.2079857142857,163.57449285714284
1190.0,150.27888000000002,164.02104,153.39626666666666,164.02104
1260.0,150.33488,164.46904,153.58293333333333,164.46904
1330.0,150.3961,164.91592142857144,153.77084285714284,164.91592142857144
1400.0,150.46609999999998,165.36092142857143,153.96084285714286,165.36092142857143
1470.0,150.53784,165.76876,154.14786,165.76876
1540.0,150.61250666666666,166.11409333333333,154.32986,166.11409333333333
1610.0,150.6907,166.45935,154.51255,166.45935
1680.0,150.7807,166.80435,154.69755,166.80435
1750.0,150.87185,167.14935,154.8814,167.14935
1820.0,150.96685,167.49435,155.0614,167.49435
1890.0,151.06361333333334,167.83835333333332,155.24293333333333,167.83835333333332
1960.0,151.16628,168.17902,155.4296,168.17902
2030.0,151.2695857142857,168.52006428571428,155.61612142857143,168.52006428571428
2100.0,151.3795857142857,168.86506428571428,155.80112142857143,168.86506428571428
2170.0,151.49016666666665,169.20521333333335,155.98586,169.20521333333335
2240.0,151.60683333333333,169.49454666666668,156.16786000000002,169.49454666666668
2310.0,151.7235,169.78388,156.34986,169.78388
2380.0,151.84331428571429,170.07384285714286,156.53469285714286,170.07384285714286
2450.0,151.9633142857143,170.36384285714286,156.71969285714286,170.36384285714286
2520.0,152.09275714285712,170.65384285714285,156.89997142857143,170.65384285714285
2590.0,152.22275714285712,170.94384285714287,157.07997142857144,170.94384285714287
2660.0,152.35338666666667,171.23762,157.26626666666667,171.23762
2730.0,152.48405333333332,171.53162,157.45293333333333,171.53162
2800.0,152.61819285714284,171.82241428571427,157.63826428571429,171.82241428571427
2870.0,152.75319285714286,172.11241428571427,157.8232642857143,172.11241428571427
2940.0,152.8922,172.3757,158.00586,172.3757
3010.0,153.03220000000002,172.63236666666666,158.18786,172.63236666666666
3080.0,153.17549285714287,172.8879357142857,158.36854285714287,172.8879357142857
3150.0,153.32049285714285,173.1429357142857,158.54854285714288,173.1429357142857
3220.0,153.46549285714286,173.39793571428572,158.73183571428572,173.39793571428572
3290.0,153.61049285714284,173.65293571428572,158.9168357142857,173.65293571428572
3360.0,153.75834666666665,173.90903333333333,159.1029333333333,173.90903333333333
3430.0,153.90768,174.1657,159.2896,174.1657
3500.0,154.05735714285714,174.42150714285714,159.47540714285714,174.42150714285714
3570.0,154.20735714285715,174.67650714285716,159.66040714285714,174.67650714285716
3640.0,154.36182666666667,174.92033333333333,159.84386,174.92033333333333
3710.0,154.52049333333335,175.15366666666668,160.02586,175.15366666666668
3780.0,154.67779285714286,175.38575714285716,160.20897857142856,175.38575714285716
3850.0,154.83279285714286,175.61575714285715,160.39397857142856,175.61575714285715
3920.0,154.98965714285714,175.84575714285714,160.57897857142856,175.84575714285714
3990.0,155.14965714285714,176.07575714285713,160.76397857142857,176.07575714285713
4060.0,155.3109,176.307,160.94786,176.307
4130.0,155.47423333333333,176.54033333333334,161.12986,176.54033333333334
4200.0,155.6368,176.7729,161.31255000000002,176.7729
4270.0,155.7968,177.0029,161.49755,177.0029
4340.0,155.95864,177.22937333333334,161.68293333333332,177.22937333333334
4410.0,156.12664,177.44404,161.8696,177.44404
4480.0,156.29437857142858,177.6587357142857,162.05612142857143,177.6587357142857
4550.0,156.45937857142857,177.87373571428571,162.24112142857143,177.87373571428571
4620.0,156.6248142857143,178.0883,162.42568571428572,178.0883
4690.0,156.7948142857143,178.2983,162.60568571428573,178.2983
4760.0,156.96464,178.50870666666668,162.78626666666668,178.50870666666668
4830.0,157.13264,178.72337333333334,162.97293333333334,178.72337333333334
4900.0,157.30064000000002,178.93804,163.15959999999998,178.93804
4970.0,157.4705285714286,179.1483,163.34469285714286,179.1483
5040.0,157.64052857142858,179.3583,163.52969285714286,179.3583
5110.0,157.81304666666668,179.5594866666667,163.71186,179.5594866666667
5180.0,157.98571333333334,179.76015333333334,163.89386000000002,179.76015333333334
5250.0,158.16025000000002,179.95627857142858,164.07425714285714,179.95627857142858
5320.0,158.33525,180.15127857142858,164.25425714285714,180.15127857142858
5390.0,158.51025,180.35028571428572,164.43826428571427,180.35028571428572
5460.0,158.68525,180.5502857142857,164.62326428571427,180.5502857142857
5530.0,158.85838,180.74708,164.80586,180.74708
5600.0,159.03104666666667,180.94307999999998,164.98786,180.94307999999998
5670.0,159.20525,181.14171428571427,165.17183571428572,181.14171428571427
5740.0,159.38025,181.3417142857143,165.3568357142857,181.3417142857143
5810.0,159.55678666666665,181.53293333333335,165.53986,181.53293333333335
5880.0,159.73412,181.7196,165.72186,181.7196
5950.0,159.91025,181.90540714285714,165.90282857142856,181.90540714285714
6020.0,160.08525,182.09040714285715,166.08282857142856,182.09040714285715
6090.0,160.26282857142857,182.27798571428573,166.26540714285713,182.27798571428573
6160.0,160.44282857142858,182.46798571428573,166.45040714285713,182.46798571428573
6230.0,160.62145333333333,182.65626666666668,166.63145333333333,182.65626666666668
6300.0,160.79878666666667,182.84293333333335,166.80878666666666,182.84293333333335
6370.0,160.97525,183.02897857142858,166.98897857142856,183.02897857142858
6440.0,161.15025,183.21397857142858,167.17397857142856,183.21397857142858
6510.0,161.32612,183.39612000000002,167.35612,183.39612000000002
6580.0,161.5034533333333,183.57345333333333,167.5334533333333,183.57345333333333
6650.0,161.6814,183.75025,167.7114,183.75025
6720.0,161.8614,183.92525,167.8914,183.92525
6790.0,162.0414,184.1014,168.0714,184.1014
6860.0,162.22140000000002,184.2814,168.2514,184.2814
6930.0,162.40078666666668,184.46078666666665,168.43186,184.46078666666665
7000.0,162.57812,184.63812000000001,168.61386,184.63812000000001
7070.0,162.75568571428573,184.81525000000002,168.79568571428572,184.81525000000002
7140.0,162.9356857142857,184.99025,168.9756857142857,184.99025
7210.0,163.11586,185.16464000000002,169.15545333333333,185.16464000000002
7280.0,163.29786000000001,185.33264,169.33278666666666,185.33264
7350.0,163.47986,185.50064,169.51012,185.50064
7420.0,163.65997142857142,185.66580714285715,169.68997142857143,185.66580714285715
7490.0,163.83997142857143,185.83080714285714,169.86997142857143,185.83080714285714
7560.0,164.01524999999998,186.0005285714286,170.04524999999998,186.0005285714286
7630.0,164.19025,186.17052857142858,170.22025,186.17052857142858
7700.0,164.37186,186.33864,170.39745333333335,186.33864
7770.0,164.55386000000001,186.50664,170.57478666666668,186.50664
7840.0,164.73425714285713,186.6722357142857,170.75025000000002,186.6722357142857
7910.0,164.91425714285714,186.83723571428573,170.92525,186.83723571428573
7980.0,165.09212,187.0009,171.10212,187.0009
8050.0,165.26945333333333,187.16423333333333,171.27945333333335,187.16423333333333
8120.0,165.44854285714285,187.32537142857143,171.45525,187.32537142857143
8190.0,165.62854285714286,187.48537142857143,171.63025,187.48537142857143
8260.0,165.80854285714287,187.64537142857142,171.80525,187.64537142857142
8330.0,165.98854285714287,187.80537142857145,171.98024999999998,187.80537142857145
8400.0,166.16678666666667,187.96449333333334,172.15371333333331,187.96449333333334
8470.0,166.34412,188.12315999999998,172.32638,188.12315999999998
8540.0,166.52282857142856,188.28251428571429,172.50025,188.28251428571429
8610.0,166.70282857142857,188.44251428571428,172.67525,188.44251428571428
8680.0,166.88145333333333,188.59942,172.84904666666665,188.59942
8750.0,167.05878666666666,188.75342,173.02171333333334,188.75342
8820.0,167.23711428571428,188.90779285714285,173.19525,188.90779285714285
8890.0,167.4171142857143,189.06279285714285,173.37025,189.06279285714285
8960.0,167.5971142857143,189.21779285714285,173.5433857142857,189.21779285714285
9030.0,167.77711428571428,189.37279285714285,173.71338571428572,189.37279285714285
9100.0,167.95612,189.52742,173.88438,189.52742
9170.0,168.13345333333334,189.68142,174.05704666666665,189.68142
9240.0,168.31025,189.83565000000002,174.2291,189.83565000000002
9310.0,168.48525,189.99065000000002,174.3991,189.99065000000002
9380.0,168.66078666666667,190.14327333333335,174.56971333333334,190.14327333333335
9450.0,168.83812,190.28794,174.74238,190.28794
9520.0,169.01568571428572,190.43307142857142,174.9148142857143,190.43307142857142
9590.0,169.19568571428573,190.58307142857143,175.0848142857143,190.58307142857143
9660.0,169.37525000000002,190.73307142857144,175.2548142857143,190.73307142857144
9730.0,169.55025,190.88307142857144,175.4248142857143,190.88307142857144
9800.0,169.72545333333335,191.03260666666668,175.59464000000003,191.03260666666668
9870.0,169.90278666666669,191.17727333333335,175.76264,191.17727333333335
9940.0,170.08012,191.32194,175.93064,191.32194
10010.0,170.25513204853675,191.47154175588867,176.0956959314775,191.47154175588867
10080.0,170.43000713775874,191.62143468950748,176.26057815845826,191.62143468950748
10150.0,170.6028,191.7664,176.4284,191.7664
10220.0,170.77546666666666,191.91106666666667,176.5964,191.91106666666667
10290.0,170.95,192.052,176.766,192.052
10360.0,171.125,192.192,176.936,192.192
10430.0,171.29999999999998,192.33599999999998,177.102,192.33599999999998
10500.0,171.475,192.481,177.267,192.481
10570.0,171.64813333333333,192.62573333333333,177.43066666666667,192.62573333333333
10640.0,171.8208,192.7704,177.594,192.7704
10710.0,171.995,192.912,177.75842857142857,192.912
10780.0,172.17,193.052,177.92342857142856,193.052
10850.0,172.34346666666667,193.192,178.08733333333333,193.192
10920.0,172.51613333333333,193.332,178.25066666666666,193.332
10990.0,172.68742857142857,193.472,178.41485714285716,193.472
11060.0,172.85742857142856,193.612,178.57985714285715,193.612
11130.0,173.03,193.74942857142858,178.74485714285714,193.74942857142858
11200.0,173.20499999999998,193.88442857142857,178.90985714285716,193.88442857142857
11270.0,173.3764,194.022,179.074,194.022
11340.0,173.5444,194.162,179.23733333333334,194.162
11410.0,173.715,194.302,179.3994285714286,194.302
11480.0,173.89000000000001,194.442,179.55942857142858,194.442
11550.0,174.0624,194.57853333333333,179.71893333333333,194.57853333333333
11620.0,174.2304,194.7092,179.8776,194.7092
11690.0,174.39885714285717,194.84085714285715,180.03657142857142,194.84085714285715
11760.0,174.56885714285715,194.97585714285714,180.19657142857142,194.97585714285714
11830.0,174.73771428571428,195.11200000000002,180.35542857142858,195.11200000000002
11900.0,174.9027142857143,195.252,180.51042857142858,195.252
11970.0,175.06733333333332,195.39093333333335,180.6652,195.39093333333335
12040.0,175.23066666666668,195.5262666666667,180.8192,195.5262666666667
12110.0,175.39371428571428,195.66114285714286,180.97285714285715,195.66114285714286
12180.0,175.55371428571428,195.79114285714286,181.12285714285713,195.79114285714286
12250.0,175.71359999999999,195.9212,181.2728,195.9212
12320.0,175.87226666666666,196.05186666666665,181.42213333333333,196.05186666666665
12390.0,176.03093333333334,196.18253333333334,181.57146666666668,196.18253333333334
12460.0,176.19085714285714,196.31257142857143,181.7214285714286,196.31257142857143
12530.0,176.35085714285717,196.44257142857143,181.87142857142857,196.44257142857143
12600.0,176.51085714285716,196.57257142857142,182.02142857142857,196.57257142857142
12670.0,176.67085714285716,196.70257142857145,182.17142857142858,196.70257142857145
12740.0,176.8252,196.8332,182.3208,196.8332
12810.0,176.9792,196.9638666666667,182.47013333333334,196.9638666666667
12880.0,177.138,197.094,182.62,197.094
12950.0,177.298,197.224,182.77,197.224
13020.0,177.45693333333332,197.3508,182.91946666666666,197.3508
13090.0,177.6156,197.4768,183.0688,197.4768
13160.0,177.77185714285713,197.60214285714287,183.21857142857144,197.60214285714287
13230.0,177.92685714285713,197.72714285714287,183.3685714285714,197.72714285714287
13300.0,178.08185714285713,197.85214285714287,183.5152857142857,197.85214285714287
13370.0,178.23685714285713,197.97714285714287,183.66028571428572,197.97714285714287
13440.0,178.3912,198.10586666666669,183.80813333333333,198.10586666666669
13510.0,178.5452,198.23653333333334,183.95746666666668,198.23653333333334
13580.0,178.6997142857143,198.36428571428573,184.10457142857143,198.36428571428573
13650.0,178.8547142857143,198.48928571428573,184.24957142857141,198.48928571428573
13720.0,179.0092,198.6124,184.3944,198.6124
13790.0,179.1632,198.73373333333333,184.53906666666666,198.73373333333333
13860.0,179.31757142857143,198.85642857142858,184.68571428571428,198.85642857142858
13930.0,179.47257142857143,198.98142857142858,184.8357142857143,198.98142857142858
14000.0,179.62757142857143,199.10642857142858,184.98385714285715,199.10642857142858
14070.0,179.78257142857143,199.23142857142858,185.12885714285716,199.23142857142858
14140.0,179.9372,199.35506666666666,185.27373333333333,199.35506666666666
14210.0,180.09120000000001,199.47639999999998,185.4184,199.47639999999998
14280.0,180.24411764705883,199.59941176470588,185.5629411764706,199.59941176470588
14350.0,180.3933823529412,199.7280882352941,185.70705882352942,199.7280882352941
