Time (s),T_min (C),T_max (C),T_ave (C),Thermal_Input (C)
0.0,200.0,200.0,200.0,200.0
70.0,200.0,200.752688172043,200.07396357759959,200.752688172043
140.0,200.0,201.50537634408602,200.1479271551992,201.50537634408602
210.0,200.0,202.26748166666667,200.2545783333333,202.26748166666667
280.0,200.0,203.03359277777776,200.37513388888888,203.03359277777776
350.0,200.0,203.80021,200.49897916666666,203.80021
420.0,200.0,204.57021,200.6448125,204.57021
490.0,200.00242583333332,205.34021,200.79792333333333,205.34021
560.0,200.00825916666665,206.11021,200.96125666666666,206.11021
630.0,200.01272833333334,206.88021,201.13550333333333,206.88021
700.0,200.01661722222224,207.65021,201.3143922222222,207.65021
770.0,200.02151833333335,208.42021,201.49505249999999,208.42021
840.0,200.033185,209.19020999999998,201.6875525,209.19020999999998
910.0,200.04808566190766,209.96180934392532,201.88570801622134,209.96180934392532
980.0,200.0675290261652,210.73565524137547,202.09180767735128,210.73565524137547
1050.0,200.08697239042274,211.5095011388256,202.2979073384812,211.5095011388256
1120.0,200.1097,212.2801,202.512225,212.2801
1190.0,200.13455,213.0501,202.72957499999998,213.0501
1260.0,200.16955,213.8201,202.957075,213.8201
1330.0,200.20778333333334,214.5901,203.19023333333334,214.5901
1400.0,200.25056111111113,215.36010000000002,203.43134444444445,215.36010000000002
1470.0,200.2933388888889,216.1301,203.67245555555556,216.1301
1540.0,200.344325,216.905025,203.921775,216.905025
1610.0,200.39859444444443,217.6801,204.1738722222222,217.6801
1680.0,200.46470555555555,218.45010000000002,204.43442777777778,218.45010000000002
1750.0,200.53081666666665,219.2201,204.69498333333334,219.2201
1820.0,200.60235833333334,219.99335833333333,204.95988333333335,219.99335833333333
1890.0,200.67819166666666,220.76919166666664,205.22821666666667,220.76919166666664
1960.0,200.75895,221.5401,205.5064,221.5401
2030.0,200.8426388888889,222.31060555555555,205.78690555555556,222.31060555555555
2100.0,200.93986111111113,223.08449444444443,206.07079444444443,223.08449444444443
2170.0,201.03708333333336,223.85838333333334,206.35468333333333,223.85838333333334
2240.0,201.13865,224.6301,206.646175,224.6301
2310.0,201.24365,225.4001,206.943675,225.4001
2380.0,201.3585,226.17338333333333,207.2461,226.17338333333333
2450.0,201.47516666666667,226.9472722222222,207.54943333333335,226.9472722222222
2520.0,201.59501666666668,227.7201,207.85595,227.7201
2590.0,201.72335,228.4901,208.17095,228.4901
2660.0,201.8582,229.26335833333334,208.48920833333335,229.26335833333334
2730.0,201.9982,230.03919166666665,208.81004166666668,230.03919166666665
2800.0,202.14805,230.81338333333332,209.13580000000002,230.81338333333332
2870.0,202.29971666666665,231.58727222222223,209.46246666666667,231.58727222222223
2940.0,202.452975,232.36010000000002,209.79231666666666,232.36010000000002
3010.0,202.610475,233.1301,210.13065,233.1301
3080.0,202.77557777777778,233.90227222222222,210.47115555555555,233.90227222222222
3150.0,202.9466888888889,234.67616111111113,210.8133777777778,234.67616111111113
3220.0,203.11780000000002,235.45005,211.1556,235.45005
3290.0,203.29850833333333,236.22585833333332,211.50549999999998,236.22585833333332
3360.0,203.482525,237.0001,211.85868333333332,237.0001
3430.0,203.675025,237.7701,212.22035,237.7701
3500.0,203.87078333333332,238.54227222222224,212.5841888888889,238.54227222222224
3570.0,204.06911666666667,239.31616111111111,212.94974444444443,239.31616111111111
3640.0,204.26745,240.09005,213.31529999999998,240.09005
3710.0,204.4773,240.86585833333334,213.682775,240.86585833333334
3780.0,204.69048333333333,241.6411611111111,214.05398888888888,241.6411611111111
3850.0,204.91215,242.41505,214.4351,242.41505
3920.0,205.13381666666666,243.18893888888888,214.8162111111111,243.18893888888888
3990.0,205.359575,243.96009999999998,215.20005,243.96009999999998
4060.0,205.587075,244.73010000000002,215.58505,244.73010000000002
4130.0,205.82609166666666,245.51161666666667,215.96429166666667,245.51161666666667
4200.0,206.06685,246.29010000000002,216.34611111111113,246.29010000000002
4270.0,206.31185,247.0601,216.735,247.0601
4340.0,206.55685,247.83010000000002,217.1238888888889,247.83010000000002
4410.0,206.80594166666666,248.60419166666668,217.51823333333334,248.60419166666668
4480.0,207.05677500000002,249.380025,217.9149,249.380025
4550.0,207.31720555555555,250.1539388888889,218.31540555555554,250.1539388888889
4620.0,207.5777611111111,250.92782777777776,218.7159611111111,250.92782777777776
4690.0,207.843975,251.702525,219.122175,251.702525
4760.0,208.11814166666665,252.47835833333335,219.53634166666666,252.47835833333335
4830.0,208.39230833333332,253.2501,219.95050833333335,253.2501
4900.0,208.666475,254.0201,220.364675,254.0201
4970.0,208.9502388888889,254.79393888888887,220.7846,254.79393888888887
5040.0,209.2341277777778,255.56782777777778,221.2046,255.56782777777778
5110.0,209.52125,256.342525,221.62945,256.342525
5180.0,209.81291666666667,257.11835833333333,222.06111666666666,257.11835833333333
5250.0,210.1127666666667,257.89282777777777,222.4955111111111,257.89282777777777
5320.0,210.4161,258.6667166666667,222.93106666666668,258.6667166666667
5390.0,210.71943333333334,259.4408583333333,223.366875,259.4408583333333
5460.0,211.02276666666666,260.2166916666667,223.804375,260.2166916666667
5530.0,211.33095,260.992525,224.246725,260.992525
5600.0,211.64595,261.76835833333337,224.69589166666668,261.76835833333337
5670.0,211.96640555555555,262.5428277777778,225.14642222222224,262.5428277777778
5740.0,212.28918333333334,263.31671666666665,225.59753333333336,263.31671666666665
5810.0,212.613225,264.09085833333336,226.04915,264.09085833333336
5880.0,212.94572499999998,264.86669166666667,226.50415,264.86669166666667
5950.0,213.28064999999998,265.64171666666664,226.96238333333335,265.64171666666664
6020.0,213.61898333333332,266.41560555555554,227.42516111111112,266.41560555555554
6090.0,213.95731666666666,267.18949444444445,227.8879388888889,267.18949444444445
6160.0,214.30057499999998,267.9601,228.354,267.9601
6230.0,214.64625833333332,268.73085833333334,228.821425,268.73085833333334
6300.0,215.00209166666667,269.50669166666665,229.293925,269.50669166666665
6370.0,215.35873333333333,270.2817166666666,229.76885,270.2817166666666
6440.0,215.71651111111112,271.05560555555553,230.24718333333334,271.05560555555553
6510.0,216.07428888888887,271.82949444444444,230.7255166666667,271.82949444444444
6580.0,216.44027499999999,272.605025,231.20385000000002,272.605025
6650.0,216.80802777777777,273.38111111111107,231.68370000000002,273.38111111111107
6720.0,217.17747222222224,274.15888888888884,232.1737,274.15888888888884
6790.0,217.54691666666668,274.93666666666667,232.6637,274.93666666666667
6860.0,217.92505,275.7101,233.1537,275.7101
6930.0,218.31005000000002,276.48010000000005,233.6437,276.48010000000005
7000.0,218.69505,277.25502500000005,234.138625,277.25502500000005
7070.0,219.08106111111113,278.03060555555555,234.63521666666665,278.03060555555555
7140.0,219.47383888888888,278.80449444444446,235.13688333333334,278.80449444444446
7210.0,219.86661666666666,279.57838333333336,235.63855,279.57838333333336
7280.0,220.26156666666665,280.35335833333335,236.143475,280.35335833333335
7350.0,220.65823333333333,281.12919166666666,236.650975,281.12919166666666
7420.0,221.06146666666666,281.9066666666667,237.1634,281.9066666666667
7490.0,221.4659111111111,282.68444444444447,237.67673333333335,282.68444444444447
7560.0,221.87300833333333,283.4601,238.19006666666667,283.4601
7630.0,222.287175,284.2301,238.70340000000002,284.2301
7700.0,222.70134166666668,285.0033583333333,239.21999166666666,285.0033583333333
7770.0,223.11550833333334,285.77919166666663,239.73915833333334,285.77919166666663
7840.0,223.53788333333335,286.5566666666667,240.26325,286.5566666666667
7910.0,223.96177222222224,287.33444444444444,240.78825,287.33444444444444
7980.0,224.38778333333335,288.1116916666667,241.31324999999998,288.1116916666667
8050.0,224.81945,288.88752500000004,241.83825,288.88752500000004
8120.0,225.24894444444445,289.6644444444445,242.35890555555557,289.6644444444445
8190.0,225.67672222222222,290.44222222222226,242.87612777777778,290.44222222222226
8260.0,226.10450000000003,291.22,243.39335,291.22
8330.0,226.53035833333334,291.99585833333333,243.91249166666665,291.99585833333333
8400.0,226.959375,292.7716916666667,244.43325,292.7716916666667
8470.0,227.396875,293.547525,244.95825,293.547525
8540.0,227.8332888888889,294.32227222222224,245.48325,294.32227222222224
8610.0,228.26884444444445,295.0961611111111,246.00825,295.0961611111111
8680.0,228.70440000000002,295.87005,246.53324999999998,295.87005
8750.0,229.14763333333335,296.6458583333333,247.06976666666668,296.6458583333333
8820.0,229.5920277777778,297.4211611111111,247.60643333333334,297.4211611111111
8890.0,230.03925,298.19505,248.1431,298.19505
8960.0,230.48647222222223,298.9689388888889,248.67976666666667,298.9689388888889
9030.0,230.93915,299.74419166666667,249.21643333333333,299.74419166666667
9100.0,231.39415,300.520025,249.7531,300.520025
9170.0,231.84915,301.29585833333334,250.30128333333332,301.29585833333334
9240.0,232.30627222222222,302.07222222222225,250.84961666666666,302.07222222222225
9310.0,232.76905000000002,302.85,251.39795,302.85
9380.0,233.2318277777778,303.6277777777778,251.94628333333335,303.6277777777778
9450.0,233.69733333333335,304.4041916666667,252.49870833333335,304.4041916666667
9520.0,234.164,305.180025,253.052875,305.180025
9590.0,234.63450555555553,305.9539388888889,253.6089611111111,305.9539388888889
9660.0,235.1050611111111,306.7278277777778,254.16507222222222,306.7278277777778
9730.0,235.57885,307.502525,254.7228,307.502525
9800.0,236.0571833333333,308.27835833333336,255.2828,308.27835833333336
9870.0,236.53551666666667,309.05419166666667,255.8428,309.05419166666667
9940.0,237.01385000000002,309.830025,256.4028,309.830025
10010.0,237.499594669628,310.6035147140477,256.9701665741255,310.6035147140477
10080.0,237.9854358689617,311.376973903387,257.53762909494725,311.376973903387
10150.0,238.473,312.15141666666665,258.1068333333333,312.15141666666665
10220.0,238.96300000000002,312.92725,258.67850000000004,312.92725
10290.0,239.45572222222222,313.70444444444445,259.2528888888889,313.70444444444445
10360.0,239.94961111111112,314.4822222222222,259.8284444444444,314.4822222222222
10430.0,240.44375,315.25975,260.40425,315.25975
10500.0,240.93958333333333,316.03558333333336,260.98175,316.03558333333336
10570.0,241.43783333333332,316.8114166666667,261.55925,316.8114166666667
10640.0,241.9395,317.58725,262.13675,317.58725
10710.0,242.4466111111111,318.3617222222222,262.71833333333336,318.3617222222222
10780.0,242.95605555555557,319.13561111111113,263.3016666666667,319.13561111111113
10850.0,243.466,319.90975,263.88575000000003,319.90975
10920.0,243.97933333333333,320.68558333333334,264.4749166666667,320.68558333333334
10990.0,244.49266666666668,321.4622222222222,265.0632777777778,321.4622222222222
11060.0,245.006,322.24,265.65049999999997,322.24
11130.0,245.51933333333332,323.0177777777778,266.2377222222222,323.0177777777778
11200.0,246.03758333333334,323.7939166666667,266.8315,323.7939166666667
11270.0,246.5575,324.56975,267.42650000000003,324.56975
11340.0,247.08249999999998,325.34558333333337,268.0215,325.34558333333337
11410.0,247.6091111111111,326.12061111111115,268.6181111111111,326.12061111111115
11480.0,248.138,326.8945,269.21700000000004,326.8945
11550.0,248.66688888888888,327.6683888888889,269.81588888888894,327.6683888888889
11620.0,249.19741666666667,328.44391666666667,270.4164166666667,328.44391666666667
11690.0,249.72899999999998,329.22,271.0175,329.22
11760.0,250.26566666666668,329.9977777777778,271.6202777777778,329.9977777777778
11830.0,250.80233333333334,330.77555555555557,272.22305555555556,330.77555555555557
11900.0,251.34225,331.55225,272.83125,331.55225
11970.0,251.88475,332.3280833333333,273.44375,332.3280833333333
12040.0,252.42725000000002,333.10391666666663,274.05133333333333,333.10391666666663
12110.0,252.9695,333.8805,274.65749999999997,333.8805
12180.0,253.51005555555557,334.6621666666667,275.2602777777778,334.6621666666667
12250.0,254.0506111111111,335.4438333333334,275.86305555555555,335.4438333333334
12320.0,254.58575,336.22225000000003,276.45825,336.22225000000003
12390.0,255.11658333333332,336.99808333333334,277.04741666666666,336.99808333333334
12460.0,255.65233333333333,337.77555555555557,277.6415,337.77555555555557
12530.0,256.18899999999996,338.55333333333334,278.23650000000004,338.55333333333334
12600.0,256.72566666666665,339.3305833333333,278.8315,339.3305833333333
12670.0,257.26233333333334,340.10641666666663,279.4265,340.10641666666663
12740.0,257.799,340.88225,280.02475,340.88225
12810.0,258.33566666666667,341.6580833333333,280.62558333333334,341.6580833333333
12880.0,258.8788888888889,342.43227777777776,281.23133333333334,342.43227777777776
12950.0,259.42333333333335,343.20616666666666,281.83799999999997,343.20616666666666
13020.0,259.96883333333335,343.9805833333333,282.44466666666665,343.9805833333333
13090.0,260.51716666666664,344.75641666666667,283.05133333333333,344.75641666666667
13160.0,261.0655,345.53333333333336,283.66016666666667,345.53333333333336
13230.0,261.61383333333333,346.31111111111113,284.2707222222222,346.31111111111113
13300.0,262.1621666666667,347.0888888888889,284.88127777777777,347.0888888888889
13370.0,262.7105,347.86475,285.49375,347.86475
13440.0,263.262,348.6405833333333,286.1078333333333,348.6405833333333
13510.0,263.822,349.41641666666663,286.72616666666664,349.41641666666663
13580.0,264.37983333333335,350.1933333333333,287.3445,350.1933333333333
13650.0,264.93594444444443,350.9711111111111,287.9628333333333,350.9711111111111
13720.0,265.49205555555557,351.74888888888887,288.58116666666666,351.74888888888887
13790.0,266.05199999999996,352.52475,289.1995,352.52475
13860.0,266.61305555555555,353.30005555555556,289.81994444444445,353.30005555555556
13930.0,267.1769444444445,354.0739444444444,290.4460555555555,354.0739444444444
14000.0,267.74083333333334,354.8478333333333,291.07216666666665,354.8478333333333
14070.0,268.3101666666667,355.62308333333334,291.69691666666665,355.62308333333334
14140.0,268.8818333333333,356.3989166666667,292.3210833333333,356.3989166666667
14210.0,269.4535,357.1805,292.951,357.1805
14280.0,270.0244604316547,357.9605035971223,293.58086330935254,357.9605035971223
14350.0,270.5935251798561,358.73604316546766,294.21035971223023,358.73604316546766
