Time (s),T_min (C),T_max (C),T_ave (C),Thermal_Input (C)
0.0,203.6,203.6,203.6,203.6
70.0,203.6,203.75008771359884,203.61364433759988,203.75008771359884
140.0,203.6,203.90017542719772,203.6272886751998,203.90017542719772
210.0,203.6,204.0541992857143,203.6460257142857,204.0541992857143
280.0,203.6,204.2091992857143,203.6660257142857,204.2091992857143
350.0,203.6,204.36820571428572,203.69403857142856,204.36820571428572
420.0,203.6,204.52820571428572,203.72403857142857,204.52820571428572
490.0,203.6,204.69835533333332,203.75617533333332,204.69835533333332
560.0,203.6,204.871022,203.78884200000002,204.871022
630.0,203.6,205.04522500000002,203.82633714285714,205.04522500000002
700.0,203.6,205.220225,203.86633714285713,205.220225
770.0,203.60307266666666,205.43056066666668,203.907654,205.43056066666668
840.0,203.60773933333334,205.65922733333335,203.949654,205.65922733333335
910.0,203.61,205.88858989927851,203.9983584541753,205.88858989927851
980.0,203.61,206.1186063290235,204.05336238302738,206.1186063290235
1050.0,203.61257857142857,206.35377142857143,204.11094285714287,206.35377142857143
1120.0,203.61757857142857,206.59377142857144,204.17094285714285,206.59377142857144
1190.0,203.62240666666668,206.83996000000002,204.23128666666665,206.83996000000002
1260.0,203.62707333333333,207.09196,204.29195333333334,207.09196
1330.0,203.63372857142858,207.34321428571428,204.3561,207.34321428571428
1400.0,203.64372857142857,207.59321428571428,204.4261,207.59321428571428
1470.0,203.65348,207.8718,204.49958,207.8718
1540.0,203.66281333333333,208.19846666666666,204.57891333333333,208.19846666666666
1610.0,203.67344999999997,208.52589999999998,204.65955,208.52589999999998
1680.0,203.68845,208.8559,204.74455,208.8559
1750.0,203.70344999999998,209.19165,204.83185,209.19165
1820.0,203.71845,209.54665,204.92685,209.54665
1890.0,203.73536666666666,209.90801333333332,205.02468666666667,209.90801333333332
1960.0,203.7587,210.29067999999998,205.13201999999998,210.29067999999998
2030.0,203.78174285714286,210.6739857142857,205.2395857142857,210.6739857142857
2100.0,203.80174285714284,211.0639857142857,205.3495857142857,211.0639857142857
2170.0,203.82244,211.45822666666666,205.46097999999998,211.45822666666666
2240.0,203.85044,211.89689333333334,205.58697999999998,211.89689333333334
2310.0,203.87843999999998,212.33556000000002,205.71298,212.33556000000002
2380.0,203.91305,212.78020714285714,205.84275714285712,212.78020714285714
2450.0,203.94805,213.22520714285713,205.97275714285712,213.22520714285713
2520.0,203.98305,213.71269999999998,206.11692142857143,213.71269999999998
2590.0,204.01805000000002,214.2027,206.26192142857144,214.2027
2660.0,204.05966,214.7411733333333,206.41982666666667,214.7411733333333
2730.0,204.10166,215.28250666666665,206.57849333333334,215.28250666666665
2800.0,204.1460642857143,215.82277142857143,206.74223571428573,215.82277142857143
2870.0,204.19106428571428,216.36277142857142,206.90723571428572,216.36277142857142
2940.0,204.24114,216.9936,207.0896,216.9936
3010.0,204.29247333333333,217.64693333333332,207.27626666666666,217.64693333333332
3080.0,204.34622142857143,218.3013642857143,207.47171428571428,218.3013642857143
3150.0,204.40122142857143,218.9563642857143,207.6717142857143,218.9563642857143
3220.0,204.46280714285714,219.63441428571429,207.88159285714286,219.63441428571429
3290.0,204.52780714285714,220.32441428571428,208.09659285714284,220.32441428571428
3360.0,204.5961,221.04251333333335,208.32059333333333,221.04251333333335
3430.0,204.6661,221.77518,208.54926,221.77518
3500.0,204.73867857142855,222.51162857142856,208.78635,222.51162857142856
3570.0,204.81367857142857,223.25162857142857,209.03135,223.25162857142857
3640.0,204.89572666666666,224.09374,209.28958666666668,224.09374
3710.0,204.98439333333332,225.03174,209.56025333333332,225.03174
3780.0,205.07355714285714,225.97235,209.83999285714285,225.97235
3850.0,205.16355714285714,226.91735,210.13499285714286,226.91735
3920.0,205.2572857142857,227.86048571428572,210.43372142857143,227.86048571428572
3990.0,205.3572857142857,228.8004857142857,210.73872142857144,228.8004857142857
4060.0,205.46176,229.74321999999998,211.05180000000001,229.74321999999998
4130.0,205.57376,230.69055333333333,211.37846666666667,230.69055333333333
4200.0,205.6876,231.6385,211.70705,231.6385
4270.0,205.8076,232.58849999999998,212.04205000000002,232.58849999999998
4340.0,205.93005333333335,233.60014,212.3858666666667,233.60014
4410.0,206.06072,234.81814,212.7592,234.81814
4480.0,206.19263571428573,236.03675,213.13485714285713,236.03675
4550.0,206.3376357142857,237.26175,213.53485714285713,237.26175
4620.0,206.48307142857144,238.4863142857143,213.9366,238.4863142857143
4690.0,206.63307142857144,239.70631428571429,214.35660000000001,239.70631428571429
4760.0,206.78464000000002,240.92695333333333,214.77822666666668,240.92695333333333
4830.0,206.95264,242.15428666666668,215.21689333333333,242.15428666666668
4900.0,207.12064,243.38162,215.65556,243.38162
4970.0,207.29524999999998,244.61147142857143,216.10965000000002,244.61147142857143
5040.0,207.47025,245.84147142857142,216.56465,245.84147142857142
5110.0,207.66067333333334,247.33776,217.0527,247.33776
5180.0,207.85200666666665,248.84976,217.5427,248.84976
5250.0,208.05429285714285,250.36015714285716,218.04872857142857,250.36015714285716
5320.0,208.25929285714287,251.87015714285715,218.55872857142856,251.87015714285715
5390.0,208.4763142857143,253.3841642857143,219.09277142857144,253.3841642857143
5460.0,208.6963142857143,254.89916428571428,219.63277142857143,254.89916428571428
5530.0,208.92700000000002,256.41176,220.18506000000002,256.41176
5600.0,209.16033333333334,257.92376,220.74039333333334,257.92376
5670.0,209.40464285714287,259.4410285714286,221.31197142857144,259.4410285714286
5740.0,209.65464285714287,260.9610285714286,221.89197142857142,260.9610285714286
5810.0,209.91518000000002,262.6386466666667,222.49875333333333,262.6386466666667
5880.0,210.18118,264.39798,223.11942,264.39798
5950.0,210.45697857142858,266.1602357142857,223.7552142857143,266.1602357142857
6020.0,210.74197857142858,267.9252357142857,224.4052142857143,267.9252357142857
6090.0,211.03213571428572,269.6902357142857,225.06810714285714,269.6902357142857
6160.0,211.3271357142857,271.4552357142857,225.74310714285713,271.4552357142857
6230.0,211.63365333333334,273.21972,226.42859333333334,273.21972
6300.0,211.95098666666667,274.98372,227.12392666666668,274.98372
6370.0,212.27677142857144,276.7499571428571,227.82845714285716,276.7499571428571
6440.0,212.61677142857144,278.51995714285715,228.54845714285716,278.51995714285715
6510.0,212.96224,280.33818,229.2784,280.33818
6580.0,213.31690666666668,282.2375133333333,230.02506666666667,282.2375133333333
6650.0,213.67625,284.137,230.77824999999999,284.137
6720.0,214.05125,286.037,231.55325,286.037
6790.0,214.43085,287.937,232.334,287.937
6860.0,214.82585,289.837,233.13400000000001,289.837
6930.0,215.22552666666667,291.7400666666667,233.93461333333335,291.7400666666667
7000.0,215.64086,293.6534,234.73728,293.6534
7070.0,216.05790714285715,295.5655714285714,235.54058571428573,295.5655714285714
7140.0,216.49290714285715,297.4655714285714,236.35058571428573,297.4655714285714
7210.0,216.92944666666665,299.36551333333335,237.16320000000002,299.36551333333335
7280.0,217.38211333333334,301.26484666666664,238.0032,301.26484666666664
7350.0,217.83478000000002,303.16418,238.8432,303.16418
7420.0,218.30853571428574,305.06886428571426,239.6973642857143,305.06886428571426
7490.0,218.78353571428573,306.9738642857143,240.55236428571428,306.9738642857143
7560.0,219.27742142857144,308.87414285714283,241.42625,308.87414285714283
7630.0,219.77242142857145,310.77414285714286,242.30125,310.77414285714286
7700.0,220.28473333333335,312.67792,243.19608,312.67792
7770.0,220.79806666666667,314.58191999999997,244.09208,314.58191999999997
7840.0,221.3287642857143,316.4827142857143,244.9993,316.4827142857143
7910.0,221.8637642857143,318.38271428571426,245.9093,318.38271428571426
7980.0,222.41506,320.1812,246.82678,320.1812
8050.0,222.97039333333333,321.95453333333336,247.74611333333334,321.95453333333336
8120.0,223.53867857142856,323.72567142857145,248.66917857142857,323.72567142857145
8190.0,224.11367857142858,325.4956714285715,249.59417857142859,325.4956714285715
8260.0,224.70514285714285,327.26567142857147,250.52905714285714,327.26567142857147
8330.0,225.30514285714284,329.03567142857145,251.46905714285714,329.03567142857145
8400.0,225.91568,330.80479333333335,252.41696000000002,330.80479333333335
8470.0,226.53168000000002,332.57346,253.36896000000002,332.57346
8540.0,227.15747857142858,334.3402357142857,254.32508571428573,334.3402357142857
8610.0,227.79247857142857,336.1052357142857,255.2850857142857,336.1052357142857
8680.0,228.43693333333334,337.75419999999997,256.23133333333334,337.75419999999997
8750.0,229.09026666666668,339.2942,257.1646666666667,339.2942
8820.0,229.74795,340.82674285714285,258.0930285714286,340.82674285714285
8890.0,230.41295000000002,342.3467428571429,259.01302857142855,342.3467428571429
8960.0,231.08354285714287,343.86674285714287,259.9367571428571,343.86674285714287
9030.0,231.76354285714285,345.38674285714285,260.8667571428571,345.38674285714285
9100.0,232.44926,346.90549999999996,261.798,346.90549999999996
9170.0,233.14459333333335,348.42216666666667,262.73133333333334,348.42216666666667
9240.0,233.8433,349.93845,263.6685,349.93845
9310.0,234.5533,351.45345,264.61850000000004,351.45345
9380.0,235.26636666666667,352.90658,265.56359333333336,352.90658
9450.0,235.9897,354.15258,266.49226,354.15258
9520.0,236.71448571428573,355.39849285714286,267.42060714285714,355.39849285714286
9590.0,237.4544857142857,356.64349285714286,268.34560714285715,356.64349285714286
9660.0,238.19579285714286,357.8871857142857,269.27060714285716,357.8871857142857
9730.0,238.95079285714286,359.1171857142857,270.19560714285717,359.1171857142857
9800.0,239.70669333333333,360.34654666666665,271.12052,360.34654666666665
9870.0,240.47202666666666,361.5692133333333,272.04452000000003,361.5692133333333
9940.0,241.23736,362.79188,272.96852,362.79188
10010.0,242.01129907209136,364.00648822269807,273.89284082798,364.00648822269807
10080.0,242.78574589578872,365.2206209850107,274.8171805852962,365.2206209850107
10150.0,243.5736,366.19640000000004,275.7236,366.19640000000004
10220.0,244.36226666666667,367.15773333333334,276.62893333333335,367.15773333333334
10290.0,245.156,368.11400000000003,277.526,368.11400000000003
10360.0,245.95100000000002,369.069,278.42100000000005,369.069
10430.0,246.758,370.02,279.312,370.02
10500.0,247.56799999999998,370.97,280.202,370.97
10570.0,248.37959999999998,371.92533333333336,281.08933333333334,371.92533333333336
10640.0,249.1916,372.882,281.976,372.882
10710.0,250.01214285714286,373.831,282.86157142857144,373.831
10780.0,250.83714285714285,374.776,283.74657142857143,374.776
10850.0,251.66586666666666,375.59066666666666,284.6173333333333,375.59066666666666
10920.0,252.49653333333333,376.33733333333333,285.48066666666665,376.33733333333333
10990.0,253.32942857142856,377.08057142857143,286.33971428571425,377.08057142857143
11060.0,254.16442857142857,377.82057142857144,287.19471428571427,377.82057142857144
11130.0,254.99942857142858,378.5425714285714,288.04457142857143,378.5425714285714
11200.0,255.8344285714286,379.2475714285714,288.88957142857146,379.2475714285714
11270.0,256.6744,379.9308,289.7296,379.9308
11340.0,257.5190666666667,380.59346666666664,290.56493333333333,380.59346666666664
11410.0,258.36385714285717,381.25514285714286,291.39642857142854,381.25514285714286
11480.0,259.20885714285714,381.9151428571428,292.2214285714286,381.9151428571428
11550.0,260.0554666666667,382.53453333333334,293.0416,382.53453333333334
11620.0,260.9048,383.0852,293.85360000000003,383.0852
11690.0,261.7462857142857,383.6391428571429,294.65371428571433,383.6391428571429
11760.0,262.5612857142857,384.20414285714287,295.4137142857143,384.20414285714287
11830.0,263.3762857142857,384.7542857142857,296.1725714285714,384.7542857142857
11900.0,264.1912857142857,385.2542857142857,296.9275714285714,385.2542857142857
11970.0,265.0056,385.7434666666667,297.67853333333335,385.7434666666667
12040.0,265.81759999999997,386.1961333333333,298.41586666666666,386.1961333333333
12110.0,266.62985714285713,386.6485714285714,299.15299999999996,386.6485714285714
12180.0,267.44485714285713,387.0985714285714,299.888,387.0985714285714
12250.0,268.2592,387.54359999999997,300.6216,387.54359999999997
12320.0,269.0665333333333,387.9356,301.3402666666667,387.9356
12390.0,269.8738666666667,388.3276,302.05893333333336,388.3276
12460.0,270.679,388.72242857142857,302.77414285714286,388.72242857142857
12530.0,271.484,389.11742857142855,303.48914285714284,389.11742857142855
12600.0,272.289,389.48414285714284,304.19,389.48414285714284
12670.0,273.094,389.84914285714285,304.89,389.84914285714285
12740.0,273.8924,390.1824,305.5856,390.1824
12810.0,274.6904,390.51373333333333,306.28093333333334,390.51373333333333
12880.0,275.486,390.848,306.968,390.848
12950.0,276.281,391.183,307.653,391.183
13020.0,277.07466666666664,391.4590666666667,308.3276,391.4590666666667
13090.0,277.868,391.7204,308.99960000000004,391.7204
13160.0,278.65585714285714,391.9775714285714,309.6637142857143,391.9775714285714
13230.0,279.4408571428571,392.2325714285714,310.3237142857143,392.2325714285714
13300.0,280.2225714285714,392.4842857142857,310.9804285714286,392.4842857142857
13370.0,281.0025714285714,392.7342857142857,311.6354285714286,392.7342857142857
13440.0,281.7821333333333,392.9764,312.2832,392.9764
13510.0,282.56146666666666,393.2144,312.9272,393.2144
13580.0,283.336,393.45085714285716,313.5665714285714,393.45085714285716
13650.0,284.106,393.6858571428572,314.2015714285714,393.6858571428572
13720.0,284.8736,393.8936,314.8292,393.8936
13790.0,285.63893333333334,394.0756,315.44986666666665,394.0756
13860.0,286.4022857142857,394.25685714285714,316.06842857142857,394.25685714285714
13930.0,287.1622857142857,394.43685714285715,316.6834285714286,394.43685714285715
14000.0,287.9185714285714,394.61314285714286,317.2947142857143,394.61314285714286
14070.0,288.6685714285714,394.7831428571429,317.89971428571425,394.7831428571429
14140.0,289.4173333333333,394.9506666666667,318.5018666666667,394.9506666666667
14210.0,290.164,395.114,319.0992,395.114
14280.0,290.9082352941177,395.2764705882353,319.6941176470588,395.2764705882353
14350.0,291.6442647058824,395.4360294117647,320.28088235294115,395.4360294117647
