Time (s),T_min (C),T_max (C),T_ave (C),Thermal_Input (C)
0.0,160.0,160.0,160.0,160.0
70.0,160.0,160.46839472487494,160.04092769440655,160.46839472487494
140.0,160.0,160.93678944974988,160.0818553888131,160.93678944974988
210.0,160.0,161.410475,160.15007500000002,161.410475
280.0,160.0,161.88547499999999,160.225075,161.88547499999999
350.0,160.0,162.36448,160.308085,162.36448
420.0,160.0,162.84448,160.39308499999999,162.84448
490.0,160.0,163.325014,160.492236,163.325014
560.0,160.0,163.80568066666666,160.59490266666666,163.80568066666666
630.0,160.00329071428573,164.28590857142856,160.7023957142857,164.28590857142856
700.0,160.00829071428572,164.76590857142858,160.8123957142857,164.76590857142858
770.0,160.01307133333333,165.24941866666668,160.92985466666667,165.24941866666668
840.0,160.017738,165.73475200000001,161.051188,165.73475200000001
910.0,160.0251539615632,166.21739015503323,161.1744245195399,166.21739015503323
980.0,160.0351561048796,166.69749303422162,161.29945131099524,166.69749303422162
1050.0,160.05031428571428,167.17754285714287,161.4322,167.17754285714287
1120.0,160.0703142857143,167.65754285714286,161.57219999999998,167.65754285714286
1190.0,160.08962666666667,168.13788666666665,161.71460666666664,168.13788666666665
1260.0,160.10829333333334,168.61855333333332,161.85927333333333,168.61855333333332
1330.0,160.13118571428572,169.1008357142857,162.00592857142857,169.1008357142857
1400.0,160.16118571428572,169.5858357142857,162.15592857142857,169.5858357142857
1470.0,160.19392,170.06921999999997,162.30916,170.06921999999997
1540.0,160.23125333333334,170.54988666666665,162.46782666666667,170.54988666666665
1610.0,160.26919999999998,171.0304,162.62795,171.0304
1680.0,160.3092,171.5104,162.79295,171.5104
1750.0,160.35150000000002,171.99155,162.95909999999998,171.99155
1820.0,160.4015,172.47655,163.1291,172.47655
1890.0,160.45395333333332,172.96055333333334,163.30078666666665,172.96055333333334
1960.0,160.51462,173.44122,163.47812,173.44122
2030.0,160.57522857142857,173.92226428571428,163.65612142857142,173.92226428571428
2100.0,160.63522857142857,174.4072642857143,163.84112142857143,174.4072642857143
2170.0,160.69650666666666,174.89188666666666,164.02626666666666,174.89188666666666
2240.0,160.77117333333334,175.37255333333331,164.21293333333332,175.37255333333331
2310.0,160.84583999999998,175.85322,164.3996,175.85322
2380.0,160.92554285714286,176.33325714285715,164.59413571428573,176.33325714285715
2450.0,161.00554285714284,176.81325714285714,164.78913571428572,176.81325714285714
2520.0,161.09026428571428,177.2979785714286,164.98885714285714,177.2979785714286
2590.0,161.1752642857143,177.78297857142857,165.18885714285713,177.78297857142857
2660.0,161.26813333333334,178.26388666666668,165.39389333333332,178.26388666666668
2730.0,161.36146666666667,178.74455333333333,165.59922666666665,178.74455333333333
2800.0,161.46014285714287,179.22869285714285,165.80429285714285,179.22869285714285
2870.0,161.56014285714286,179.71369285714286,166.00929285714287,179.71369285714286
2940.0,161.66602,180.19522,166.22204,180.19522
3010.0,161.77335333333335,180.67588666666666,166.43670666666665,180.67588666666666
3080.0,161.88573571428572,181.15940714285713,166.6548857142857,181.15940714285713
3150.0,162.0007357142857,181.64440714285715,166.8748857142857,181.64440714285715
3220.0,162.1223214285714,182.1261142857143,167.09817857142858,182.1261142857143
3290.0,162.2473214285714,182.60611428571428,167.32317857142857,182.60611428571428
3360.0,162.37297999999998,183.08962666666667,167.55059333333332,183.08962666666667
3430.0,162.49898,183.57496,167.77926,183.57496
3500.0,162.62962142857143,184.06012142857142,168.01119285714285,184.06012142857142
3570.0,162.76462142857144,184.54512142857143,168.24619285714286,184.54512142857143
3640.0,162.90220000000002,185.02788666666666,168.48274,185.02788666666666
3710.0,163.0422,185.50855333333334,168.72074,185.50855333333334
3780.0,163.18406428571427,185.9908357142857,168.96135,185.9908357142857
3850.0,163.32906428571428,186.47583571428572,169.20635000000001,186.47583571428572
3920.0,163.47779285714284,186.95897142857143,169.45135000000002,186.95897142857143
3990.0,163.63279285714285,187.43897142857142,169.69635,187.43897142857142
4060.0,163.78915999999998,187.92096,169.94396,187.92096
4130.0,163.94782666666666,188.40629333333334,170.19595999999999,188.40629333333334
4200.0,164.10795,188.89155,170.44979999999998,188.89155
4270.0,164.27295,189.37655,170.7098,189.37655
4340.0,164.43971333333334,189.86055333333334,170.96903333333333,189.86055333333334
4410.0,164.61238,190.34122,171.22570000000002,190.34122
4480.0,164.78525000000002,190.82226428571428,171.48309285714288,190.82226428571428
4550.0,164.96025,191.3072642857143,171.74809285714286,191.3072642857143
4620.0,165.13568571428573,191.79182857142857,172.0135285714286,191.79182857142857
4690.0,165.3156857142857,192.27182857142859,172.28352857142858,192.27182857142859
4760.0,165.49667333333332,192.75229333333334,172.55358666666666,192.75229333333334
4830.0,165.68800666666667,193.23762666666667,172.82425333333333,193.23762666666667
4900.0,165.87933999999998,193.72296,173.09492,193.72296
4970.0,166.0694142857143,194.20797857142858,173.3744,194.20797857142858
5040.0,166.25941428571429,194.69297857142857,173.65439999999998,194.69297857142857
5110.0,166.45948666666666,195.17388666666668,173.9344,195.17388666666668
5180.0,166.6601533333333,195.65455333333333,174.2144,195.65455333333333
5250.0,166.86429285714286,196.13869285714287,174.4944,196.13869285714287
5320.0,167.06929285714287,196.62369285714286,174.7744,196.62369285714286
5390.0,167.27429285714288,197.10869285714287,175.06241428571428,197.10869285714287
5460.0,167.47929285714287,197.59369285714286,175.35241428571427,197.59369285714286
5530.0,167.69204,198.07522,175.64188,198.07522
5600.0,167.90670666666665,198.55588666666668,175.93121333333335,198.55588666666668
5670.0,168.1248857142857,199.03940714285716,176.22427857142858,199.03940714285716
5740.0,168.3448857142857,199.52440714285714,176.51927857142857,199.52440714285714
5810.0,168.56752,200.00962666666666,176.81669333333335,200.00962666666666
5880.0,168.79152,200.49496,177.11536,200.49496
5950.0,169.0186142857143,200.9801214285714,177.4147142857143,200.9801214285714
6020.0,169.2486142857143,201.46512142857142,177.7147142857143,201.46512142857142
6090.0,169.4786142857143,201.94754285714285,178.01729285714288,201.94754285714285
6160.0,169.70861428571428,202.42754285714287,178.32229285714286,202.42754285714287
6230.0,169.94274,202.91029333333333,178.62884,202.91029333333333
6300.0,170.18074000000001,203.39562666666666,178.93684,203.39562666666666
6370.0,170.42135000000002,203.8808357142857,179.24745,203.8808357142857
6440.0,170.66635,204.3658357142857,179.56244999999998,204.3658357142857
6510.0,170.91048,204.85096,179.8731,204.85096
6580.0,171.15314666666666,205.33629333333334,180.17643333333334,205.33629333333334
6650.0,171.39635,205.82155,180.48015,205.82155
6720.0,171.64135000000002,206.30655000000002,180.78515000000002,206.30655000000002
6790.0,171.88750000000002,206.79155,181.09130000000002,206.79155
6860.0,172.13750000000002,207.27655000000001,181.4013,207.27655000000001
6930.0,172.38796000000002,207.76055333333335,181.7119133333333,207.76055333333335
7000.0,172.63996,208.24122,182.02458,208.24122
7070.0,172.89222142857145,208.7222642857143,182.3378857142857,208.7222642857143
7140.0,173.14722142857144,209.2072642857143,182.6578857142857,209.2072642857143
7210.0,173.40277333333333,209.69229333333334,182.97765333333334,209.69229333333334
7280.0,173.66410666666667,210.17762666666667,183.29498666666666,210.17762666666667
7350.0,173.92544,210.66296,183.61232,210.66296
7420.0,174.18551428571428,211.14797857142858,183.93689285714285,211.14797857142858
7490.0,174.4455142857143,211.63297857142857,184.26189285714287,211.63297857142857
7560.0,174.71495714285714,212.11797857142858,184.58689285714286,212.11797857142858
7630.0,174.98495714285716,212.60297857142857,184.91189285714287,212.60297857142857
7700.0,175.2555866666667,213.08388666666667,185.24287333333334,213.08388666666667
7770.0,175.52625333333336,213.56455333333332,185.57420666666667,213.56455333333332
7840.0,175.79638571428572,214.04869285714287,185.90847857142856,214.04869285714287
7910.0,176.06638571428573,214.53369285714285,186.24347857142857,214.53369285714285
7980.0,176.3444,215.01896,186.57554000000002,215.01896
8050.0,176.6244,215.50429333333332,186.90687333333335,215.50429333333332
8120.0,176.9044,215.98940714285715,187.24391428571428,215.98940714285715
8190.0,177.1844,216.47440714285713,187.5839142857143,216.47440714285713
8260.0,177.46769285714285,216.95940714285715,187.9239142857143,216.95940714285715
8330.0,177.75269285714285,217.44440714285716,188.2639142857143,217.44440714285716
8400.0,178.03747333333334,217.92655333333335,188.60742666666667,217.92655333333335
8470.0,178.32214000000002,218.40722,188.95276,218.40722
8540.0,178.60955714285714,218.89012142857143,189.29792142857144,218.89012142857143
8610.0,178.89955714285713,219.37512142857145,189.64292142857144,219.37512142857145
8680.0,179.19402666666667,219.86029333333335,189.98809333333335,219.86029333333335
8750.0,179.49269333333334,220.34562666666667,190.33342666666667,220.34562666666667
8820.0,179.78999285714286,220.8308357142857,190.6823642857143,220.8308357142857
8890.0,180.08499285714288,221.31583571428573,191.0373642857143,221.31583571428573
8960.0,180.38185714285714,221.8008357142857,191.3905,221.8008357142857
9030.0,180.68185714285715,222.28583571428572,191.7405,222.28583571428572
9100.0,180.98484000000002,222.77096,192.09224,222.77096
9170.0,181.29284,223.25629333333333,192.44690666666668,223.25629333333333
9240.0,181.60015,223.74155,192.8028,223.74155
9310.0,181.90515,224.22655,193.1628,224.22655
9380.0,182.2119133333333,224.71162666666666,193.52264666666667,224.71162666666666
9450.0,182.52458,225.19696,193.88198,225.19696
9520.0,182.8370142857143,225.68182857142855,194.24180714285714,225.68182857142855
9590.0,183.1470142857143,226.16182857142857,194.60680714285715,226.16182857142857
9660.0,183.4578857142857,226.64226428571428,194.97137142857142,226.64226428571428
9730.0,183.7778857142857,227.1272642857143,195.33137142857143,227.1272642857143
9800.0,184.09765333333334,227.61229333333333,195.69212666666667,227.61229333333333
9870.0,184.41498666666666,228.09762666666668,196.06079333333332,228.09762666666668
9940.0,184.73232000000002,228.58296,196.42945999999998,228.58296
10010.0,185.0566738044254,229.0676516773733,196.799136331192,229.0676516773733
10080.0,185.38144182726626,229.55230549607424,197.16887223411848,229.55230549607424
10150.0,185.7036,230.0376,197.5376,230.0376
10220.0,186.0256,230.52293333333333,197.90626666666665,230.52293333333333
10290.0,186.354,231.008,198.28,231.008
10360.0,186.684,231.493,198.655,231.493
10430.0,187.014,231.978,199.03,231.978
10500.0,187.344,232.463,199.405,232.463
10570.0,187.6788,232.94826666666665,199.77866666666665,232.94826666666665
10640.0,188.0148,233.43359999999998,200.152,233.43359999999998
10710.0,188.35014285714286,233.9187142857143,200.52971428571428,233.9187142857143
10780.0,188.68514285714286,234.40371428571427,200.90971428571427,234.40371428571427
10850.0,189.02386666666666,234.88893333333334,201.29146666666668,234.88893333333334
10920.0,189.36453333333333,235.37426666666667,201.67413333333334,235.37426666666667
10990.0,189.70485714285715,235.8594285714286,202.0554285714286,235.8594285714286
11060.0,190.04485714285715,236.34442857142858,202.4354285714286,236.34442857142858
11130.0,190.3874285714286,236.8294285714286,202.818,236.8294285714286
11200.0,190.73242857142858,237.31442857142858,203.203,237.31442857142858
11270.0,191.0776,237.7972,203.58919999999998,237.7972
11340.0,191.42293333333333,238.27786666666668,203.97653333333332,238.27786666666668
11410.0,191.76999999999998,238.76014285714288,204.363,238.76014285714288
11480.0,192.12,239.24514285714287,204.74800000000002,239.24514285714287
11550.0,192.47,239.73026666666667,205.1356,239.73026666666667
11620.0,192.82,240.2156,205.5276,240.2156
11690.0,193.17114285714285,240.70085714285716,205.91914285714287,240.70085714285716
11760.0,193.52614285714287,241.18585714285715,206.30914285714286,241.18585714285715
11830.0,193.88114285714286,241.67085714285716,206.69914285714287,241.67085714285716
11900.0,194.23614285714285,242.15585714285714,207.08914285714286,242.15585714285714
11970.0,194.59213333333332,242.64093333333332,207.48066666666665,242.64093333333332
12040.0,194.95146666666668,243.12626666666665,207.87733333333333,243.12626666666665
12110.0,195.31085714285715,243.6115714285714,208.27385714285714,243.6115714285714
12180.0,195.67085714285713,244.09657142857142,208.66885714285715,244.09657142857142
12250.0,196.0312,244.58159999999998,209.064,244.58159999999998
12320.0,196.3952,245.06693333333334,209.46066666666667,245.06693333333334
12390.0,196.7592,245.55226666666667,209.85733333333332,245.55226666666667
12460.0,197.12414285714286,246.03728571428573,210.25714285714287,246.03728571428573
12530.0,197.48914285714284,246.52228571428572,210.65714285714287,246.52228571428572
12600.0,197.85885714285715,247.00728571428573,211.05714285714285,247.00728571428573
12670.0,198.22885714285715,247.4922857142857,211.45714285714286,247.4922857142857
12740.0,198.5976,247.9776,211.8628,247.9776
12810.0,198.96626666666666,248.46293333333332,212.2688,248.46293333333332
12880.0,199.33599999999998,248.948,212.67,248.948
12950.0,199.706,249.433,213.07,249.433
13020.0,200.07493333333332,249.92573333333334,213.47106666666667,249.92573333333334
13090.0,200.4436,250.4204,213.8724,250.4204
13160.0,200.80328571428572,250.9054285714286,214.263,250.9054285714286
13230.0,201.1582857142857,251.38542857142858,214.648,251.38542857142858
13300.0,201.51657142857144,251.8687142857143,215.03628571428573,251.8687142857143
13370.0,201.87657142857142,252.3537142857143,215.4262857142857,252.3537142857143
13440.0,202.23613333333333,252.83893333333333,215.81453333333334,252.83893333333333
13510.0,202.59546666666668,253.32426666666666,216.20186666666666,253.32426666666666
13580.0,202.95514285714287,253.80942857142858,216.59314285714285,253.80942857142858
13650.0,203.31514285714286,254.29442857142857,216.98814285714286,254.29442857142857
13720.0,203.6772,254.7796,217.38400000000001,254.7796
13790.0,204.0412,255.26493333333332,217.78066666666666,255.26493333333332
13860.0,204.40557142857145,255.75014285714286,218.1767142857143,255.75014285714286
13930.0,204.77057142857143,256.2351428571429,218.57171428571428,256.2351428571429
14000.0,205.13557142857144,256.7201428571429,218.96857142857144,256.7201428571429
14070.0,205.50057142857142,257.20514285714285,219.36857142857144,257.20514285714285
14140.0,205.86693333333332,257.6902666666667,219.76733333333334,257.6902666666667
14210.0,206.2356,258.17560000000003,220.164,258.17560000000003
14280.0,206.60470588235296,258.66058823529414,220.56176470588235,258.66058823529414
14350.0,206.97529411764708,259.14441176470586,220.96323529411765,259.14441176470586
