Time (s),T_min (C),T_max (C),T_ave (C),Thermal_Input (C)
0.0,100.0,100.0,100.0,100.0
70.0,100.0,101.8685458206144,100.17730726764954,101.8685458206144
140.0,100.0,103.73709164122882,100.35461453529908,103.73709164122882
210.0,100.0,105.64282071428572,100.63012857142857,105.64282071428572
280.0,100.0,107.55782071428571,100.93012857142857,107.55782071428571
350.0,100.0,109.47682285714285,101.27815428571428,109.47682285714285
420.0,100.0,111.39682285714285,101.63815428571428,111.39682285714285
490.0,100.00747066666666,113.315222,102.04617999999999,113.315222
560.0,100.016804,115.233222,102.46618,115.233222
630.0,100.02986357142856,117.155825,102.91248285714286,117.155825
700.0,100.04486357142856,119.08082499999999,103.37248285714286,119.08082499999999
770.0,100.07454933333332,121.00429066666666,103.861416,121.00429066666666
840.0,100.11188266666666,122.92695733333333,104.365416,122.92695733333333
910.0,100.16087624080554,124.85061272584446,104.88788616724987,124.85061272584446
980.0,100.2208633864172,126.77520031421838,105.42777047775476,126.77520031421838
1050.0,100.29114285714286,128.7,105.98571428571428,128.7
1120.0,100.37114285714286,130.625,106.56071428571428,130.625
1190.0,100.4676,132.5512,107.1496,132.5512
1260.0,100.5796,134.47853333333333,107.7516,134.47853333333333
1330.0,100.70385714285715,136.40685714285715,108.36585714285714,136.40685714285715
1400.0,100.84885714285714,138.33685714285716,109.00085714285714,138.33685714285716
1470.0,101.00413333333333,140.26586666666668,109.64613333333334,140.26586666666668
1540.0,101.1768,142.19320000000002,110.30879999999999,142.19320000000002
1610.0,101.358,144.12114285714287,110.97314285714285,144.12114285714287
1680.0,101.568,146.05114285714285,111.64314285714285,146.05114285714285
1750.0,101.78485714285715,147.98114285714286,112.32,147.98114285714286
1820.0,102.02485714285714,149.91114285714286,113.02,149.91114285714286
1890.0,102.2708,151.84053333333333,113.7264,151.84053333333333
1960.0,102.5368,153.76786666666666,114.4544,153.76786666666666
2030.0,102.80614285714286,155.69542857142858,115.18428571428572,155.69542857142858
2100.0,103.11114285714285,157.62542857142856,115.93428571428572,157.62542857142856
2170.0,103.4184,159.55519999999999,116.6868,159.55519999999999
2240.0,103.74973333333332,161.48253333333332,117.46613333333333,161.48253333333332
2310.0,104.08106666666666,163.4098666666667,118.24546666666667,163.4098666666667
2380.0,104.43942857142856,165.33971428571428,119.04428571428572,165.33971428571428
2450.0,104.79942857142856,167.2697142857143,119.84428571428572,167.2697142857143
2520.0,105.19242857142856,169.1997142857143,120.66785714285714,169.1997142857143
2590.0,105.58742857142857,171.1297142857143,121.49285714285715,171.1297142857143
2660.0,106.006,173.0616,122.3408,173.0616
2730.0,106.426,174.9936,123.19013333333334,174.9936
2800.0,106.87,176.924,124.056,176.924
2870.0,107.32,178.854,124.92599999999999,178.854
2940.0,107.79453333333333,180.78560000000002,125.81306666666667,180.78560000000002
3010.0,108.2752,182.7176,126.7044,182.7176
3080.0,108.77514285714285,184.64828571428572,127.608,184.64828571428572
3150.0,109.28514285714286,186.57828571428573,128.518,186.57828571428573
3220.0,109.81157142857143,188.51485714285715,129.43128571428574,188.51485714285715
3290.0,110.34657142857142,190.45485714285715,130.34628571428573,190.45485714285715
3360.0,110.89493333333333,192.3896,131.26106666666666,192.3896
3430.0,111.45026666666666,194.3216,132.17573333333334,194.3216
3500.0,112.01828571428571,196.25257142857143,133.10342857142857,196.25257142857143
3570.0,112.59828571428571,198.18257142857144,134.04342857142856,198.18257142857144
3640.0,113.1896,200.1136,134.9968,200.1136
3710.0,113.7916,202.0456,135.9628,202.0456
3780.0,114.40214285714286,203.97685714285714,136.934,203.97685714285714
3850.0,115.02714285714286,205.90685714285715,137.914,205.90685714285715
3920.0,115.66142857142857,207.8387142857143,138.90328571428572,207.8387142857143
3990.0,116.31142857142856,209.7737142857143,139.9082857142857,209.7737142857143
4060.0,116.97133333333333,211.7076,140.9196,211.7076
4130.0,117.648,213.6396,141.9416,213.6396
4200.0,118.32885714285715,215.57114285714286,142.96771428571427,215.57114285714286
4270.0,119.02385714285714,217.50114285714287,144.0077142857143,217.50114285714287
4340.0,119.72426666666667,219.43266666666668,145.05213333333333,219.43266666666668
4410.0,120.44293333333333,221.36933333333332,146.11146666666667,221.36933333333332
4480.0,121.16342857142857,223.30542857142856,147.17214285714286,223.30542857142856
4550.0,121.90342857142856,225.23542857142857,148.24714285714285,225.23542857142857
4620.0,122.64557142857143,227.16585714285713,149.32385714285712,227.16585714285713
4690.0,123.41057142857143,229.10085714285714,150.41885714285712,229.10085714285714
4760.0,124.1772,231.0368,151.51399999999998,231.0368
4830.0,124.9612,232.9828,152.61066666666667,232.9828
4900.0,125.74520000000001,234.9288,153.70733333333334,234.9288
4970.0,126.53014285714286,236.86442857142856,154.78357142857143,236.86442857142856
5040.0,127.31514285714286,238.79942857142856,155.85857142857142,238.79942857142856
5110.0,128.1168,240.73160000000001,156.954,240.73160000000001
5180.0,128.91946666666666,242.6636,158.05066666666667,242.6636
5250.0,129.74,244.598,159.162,244.598
5320.0,130.565,246.533,160.277,246.533
5390.0,131.402,248.464,161.404,248.464
5460.0,132.242,250.394,162.534,250.394
5530.0,133.09693333333334,252.32933333333332,163.67839999999998,252.32933333333332
5600.0,133.9556,254.26600000000002,164.8264,254.26600000000002
5670.0,134.825,256.2015714285714,165.98557142857143,256.2015714285714
5740.0,135.7,258.1365714285714,167.15057142857142,258.1365714285714
5810.0,136.58573333333334,260.0726666666667,168.32586666666668,260.0726666666667
5880.0,137.47706666666667,262.0093333333333,169.50653333333335,262.0093333333333
5950.0,138.38057142857141,263.94514285714286,170.69457142857144,263.94514285714286
6020.0,139.29557142857144,265.88014285714286,171.88957142857143,265.88014285714286
6090.0,140.2182857142857,267.81514285714286,173.0922857142857,267.81514285714286
6160.0,141.14828571428572,269.75014285714286,174.30228571428572,269.75014285714286
6230.0,142.0872,271.6836,175.5188,271.6836
6300.0,143.03453333333334,273.6156,176.74146666666667,273.6156
6370.0,143.98842857142856,275.5505714285714,177.96871428571427,275.5505714285714
6440.0,144.95342857142856,277.4905714285714,179.20371428571428,277.4905714285714
6510.0,145.91533333333334,279.4345333333333,180.42546666666667,279.4345333333333
6580.0,146.872,281.3852,181.6248,281.3852
6650.0,147.8294285714286,283.3322857142857,182.82542857142857,283.3322857142857
6720.0,148.78942857142857,285.2672857142857,184.0304285714286,285.2672857142857
6790.0,149.754,287.2022857142857,185.23885714285714,287.2022857142857
6860.0,150.734,289.1372857142857,186.45885714285714,289.1372857142857
6930.0,151.71613333333335,291.0716,187.68373333333335,291.0716
7000.0,152.70546666666667,293.0036,188.92506666666668,293.0036
7070.0,153.69614285714286,294.93242857142855,190.16714285714286,294.93242857142855
7140.0,154.70114285714286,296.8274285714286,191.41714285714286,296.8274285714286
7210.0,155.7076,298.5648,192.6544,298.5648
7280.0,156.7296,298.62080000000003,193.75573333333332,298.62080000000003
7350.0,157.7516,298.6768,194.85706666666667,298.6768
7420.0,158.78114285714287,298.69885714285715,195.86757142857144,298.69885714285715
7490.0,159.81114285714287,298.7188571428572,196.87257142857143,298.7188571428572
7560.0,160.86,298.73885714285717,197.83514285714287,298.73885714285717
7630.0,161.91,298.75885714285715,198.79514285714285,298.75885714285715
7700.0,162.96880000000002,298.77320000000003,199.7168,298.77320000000003
7770.0,164.02813333333333,298.78720000000004,200.63613333333333,298.78720000000004
7840.0,165.092,298.802,201.53199999999998,298.802
7910.0,166.157,298.817,202.422,298.817
7980.0,167.22866666666667,298.8274666666667,203.28693333333334,298.8274666666667
8050.0,168.302,298.8368,204.1456,298.8368
8120.0,169.36985714285714,298.8498571428571,204.992,298.8498571428571
8190.0,170.43485714285714,298.86485714285715,205.832,298.86485714285715
8260.0,171.49985714285717,298.8765714285714,206.65885714285713,298.8765714285714
8330.0,172.56485714285716,298.8865714285714,207.47885714285712,298.8865714285714
8400.0,173.62306666666666,298.89613333333335,208.2844,298.89613333333335
8470.0,174.67773333333332,298.90546666666665,209.0824,298.90546666666665
8540.0,175.72485714285713,298.9151428571429,209.87371428571427,298.9151428571429
8610.0,176.76485714285715,298.9251428571429,210.65871428571427,298.9251428571429
8680.0,177.8004,298.9348,211.43359999999998,298.9348
8750.0,178.83173333333332,298.94413333333335,212.19893333333334,298.94413333333335
8820.0,179.857,298.9537142857143,212.95857142857145,298.9537142857143
8890.0,180.87199999999999,298.9637142857143,213.70857142857145,298.9637142857143
8960.0,181.88142857142856,298.9737142857143,214.453,298.9737142857143
9030.0,182.88142857142856,298.9837142857143,215.18800000000002,298.9837142857143
9100.0,183.87746666666666,298.9934666666667,215.91866666666667,298.9934666666667
9170.0,184.86679999999998,299.0028,216.642,299.0028
9240.0,185.85171428571428,299.01114285714283,217.36228571428572,299.01114285714283
9310.0,186.82171428571428,299.0161428571428,218.07228571428573,299.0161428571428
9380.0,187.78866666666667,299.02213333333333,218.77893333333333,299.02213333333333
9450.0,188.74533333333332,299.0314666666667,219.47426666666667,299.0314666666667
9520.0,189.6997142857143,299.0417142857143,220.16828571428573,299.0417142857143
9590.0,190.62971428571427,299.0617142857143,220.8482857142857,299.0617142857143
9660.0,191.5532857142857,299.08042857142857,221.52485714285714,299.08042857142857
9730.0,192.4082857142857,299.08542857142857,222.16485714285713,299.08542857142857
9800.0,193.262,299.0908,222.8032,299.0908
9870.0,194.102,299.1001333333333,223.42386666666667,299.1001333333333
9940.0,194.942,299.10946666666666,224.04453333333333,299.10946666666666
10010.0,195.77257142857144,299.11942857142856,224.65514285714286,299.11942857142856
10080.0,196.60257142857142,299.12942857142855,225.26514285714288,299.12942857142855
10150.0,197.42000000000002,299.13439999999997,225.8676,299.13439999999997
10220.0,198.23666666666668,299.1390666666667,226.4696,299.1390666666667
10290.0,199.044,299.148,227.058,299.148
10360.0,199.849,299.158,227.643,299.158
10430.0,200.646,299.16400000000004,228.224,299.16400000000004
10500.0,201.441,299.16900000000004,228.80399999999997,299.16900000000004
10570.0,202.2272,299.17373333333336,229.37546666666665,299.17373333333336
10640.0,203.0112,299.1784,229.9448,299.1784
10710.0,203.7827142857143,299.1865714285714,230.50471428571427,299.1865714285714
10780.0,204.54771428571428,299.1965714285714,231.05971428571428,299.1965714285714
10850.0,205.30986666666666,299.20306666666664,231.61186666666666,299.20306666666664
10920.0,206.07053333333334,299.2077333333333,232.16253333333333,299.2077333333333
10990.0,206.82314285714287,299.21257142857144,232.70771428571427,299.21257142857144
11060.0,207.56814285714287,299.21757142857143,233.24771428571427,299.21757142857143
11130.0,208.30542857142856,299.2251428571429,233.78257142857143,299.2251428571429
11200.0,209.03542857142855,299.2351428571429,234.31257142857143,299.2351428571429
11270.0,209.762,299.24240000000003,234.8388,299.24240000000003
11340.0,210.48533333333333,299.2470666666667,235.36146666666667,299.2470666666667
11410.0,211.20371428571428,299.25185714285715,235.88128571428572,299.25185714285715
11480.0,211.9137142857143,299.25685714285714,236.3962857142857,299.25685714285714
11550.0,212.62,299.2617333333333,236.9072,299.2617333333333
11620.0,213.32000000000002,299.2664,237.4112,299.2664
11690.0,214.01657142857144,299.2722857142857,237.91314285714287,299.2722857142857
11760.0,214.70157142857144,299.2822857142857,238.40814285714285,299.2822857142857
11830.0,215.3842857142857,299.29114285714286,238.902,299.29114285714286
11900.0,216.05928571428572,299.29614285714285,239.392,299.29614285714285
11970.0,216.73253333333335,299.30106666666666,239.8798666666667,299.30106666666666
12040.0,217.39986666666667,299.30573333333336,240.36053333333334,299.30573333333336
12110.0,218.06614285714284,299.3104285714286,240.84028571428573,299.3104285714286
12180.0,218.72114285714284,299.3154285714286,241.31028571428573,299.3154285714286
12250.0,219.3748,299.3204,241.78,299.3204
12320.0,220.01413333333332,299.32506666666666,242.24666666666667,299.32506666666666
12390.0,220.65346666666667,299.3297333333333,242.71333333333334,299.3297333333333
12460.0,221.2887142857143,299.33471428571426,243.169,299.33471428571426
12530.0,221.92371428571428,299.33971428571425,243.624,299.33971428571425
12600.0,222.54928571428573,299.3447142857143,244.07428571428574,299.3447142857143
12670.0,223.17428571428573,299.3497142857143,244.52428571428572,299.3497142857143
12740.0,223.78640000000001,299.3544,244.96800000000002,299.3544
12810.0,224.39773333333335,299.3590666666667,245.41133333333335,299.3590666666667
12880.0,225.0,299.36400000000003,245.848,299.36400000000003
12950.0,225.6,299.369,246.28300000000002,299.369
13020.0,226.19413333333333,299.3774666666667,246.71346666666668,299.3774666666667
13090.0,226.7868,299.3868,247.1428,299.3868
13160.0,227.37442857142858,299.39,247.566,299.39
13230.0,227.95942857142856,299.39,247.986,299.39
13300.0,228.53457142857144,299.3932857142857,248.4027142857143,299.3932857142857
13370.0,229.10457142857143,299.3982857142857,248.8177142857143,299.3982857142857
13440.0,229.67106666666666,299.40306666666663,249.2268,299.40306666666663
13510.0,230.23573333333334,299.40773333333334,249.6328,299.40773333333334
13580.0,230.79542857142857,299.4125714285714,250.0357142857143,299.4125714285714
13650.0,231.35042857142858,299.4175714285714,250.43571428571428,299.4175714285714
13720.0,231.9008,299.42240000000004,250.8316,299.42240000000004
13790.0,232.4468,299.4270666666667,251.2236,299.4270666666667
13860.0,232.98871428571428,299.43185714285715,251.61485714285715,299.43185714285715
13930.0,233.5237142857143,299.43685714285715,252.00485714285713,299.43685714285715
14000.0,234.05685714285715,299.44185714285715,252.39114285714285,299.44185714285715
14070.0,234.58685714285713,299.44685714285714,252.77114285714285,299.44685714285714
14140.0,235.11239999999998,299.4517333333333,253.14866666666666,299.4517333333333
14210.0,235.6304,299.4564,253.522,299.4564
14280.0,236.1429411764706,299.4611764705882,253.89470588235295,299.4611764705882
14350.0,236.63705882352943,299.4663235294118,254.26529411764707,299.4663235294118
