Time (s),T_min (C),T_max (C),T_ave (C),Thermal_Input (C)
0.0,100.0,100.0,100.0,100.0
145.45454545454547,100.0,101.96047430830039,100.1897233201581,101.93199069452287
290.90909090909093,100.0,103.95264141414141,100.49146969696969,103.54181118510101
436.3636363636364,100.00794696969697,105.95125,100.85430303030303,105.62816077242424
581.8181818181819,100.02013636363635,107.95127272727272,101.28268181818181,108.11953278409091
727.2727272727274,100.04437878787878,109.95531313131313,101.7594494949495,109.69080106691919
872.7272727272727,100.07793181818181,111.95625,102.27035606060606,111.99484846492423
1018.1818181818182,100.14859090909091,113.96006060606061,102.82586363636364,113.6206920989394
1163.6363636363637,100.23842424242424,115.96980303030303,103.40909848484849,115.74642257310606
1309.0909090909092,100.3585404040404,117.97147474747474,104.0359595959596,118.19851289823232
1454.5454545454547,100.51207575757576,119.97551515151515,104.68242424242425,119.76978118106061
1600.0000000000002,100.68875,121.98616666666668,105.36525,122.12152778916666
1745.4545454545455,100.90668181818181,123.99026262626263,106.07622222222223,123.69935463313132
1890.909090909091,101.15234090909091,126.00040909090909,106.80870454545455,125.86426769431817
2036.3636363636365,101.43328787878788,128.0025303030303,107.57364646464646,128.27707631237374
2181.818181818182,101.7484393939394,130.0146515151515,108.36556565656565,129.848344595202
2327.2727272727275,102.09637878787879,132.02642424242424,109.17624242424243,132.20664984121214
2472.727272727273,102.47617676767676,134.03046464646465,110.01664646464647,133.77791804323232
2618.1818181818185,102.89178030303032,136.04101515151515,110.88309090909091,135.98211281553031
2763.636363636364,103.3329393939394,138.04313636363636,111.76210606060607,138.35563972651514
2909.0909090909095,103.80162626262627,140.05525757575757,112.67523737373737,139.92690800934344
3054.545454545455,104.30966666666667,142.06662626262627,113.60879797979798,142.28521325131314
3200.0000000000005,104.843,144.07066666666668,114.56233333333334,143.85648145333334
3345.454545454546,105.40781818181819,146.09162121212123,115.49969696969697,146.10511365734848
3490.909090909091,105.99462121212122,148.28319696969697,116.4860101010101,148.45266554060606
3636.3636363636365,106.60068181818183,151.16804545454545,117.53651515151515,150.1137205709091
3781.818181818182,107.24483838383838,157.03817171717174,118.9959393939394,157.09132999580808
3927.2727272727275,107.90746464646465,163.03413131313133,120.64442424242424,161.80513468267677
4072.727272727273,108.60863636363636,169.0447272727273,122.44538636363637,168.69412875454546
4218.181818181819,109.35036868686869,175.0589141414142,124.3984797979798,175.5382996437374
4363.636363636364,110.13537878787879,181.07896969696972,126.42866666666667,180.30397730606063
4509.09090909091,110.99634848484848,187.09577272727276,128.56980303030304,187.32702023015156
4654.545454545455,111.9094797979798,193.1321363636364,130.7435404040404,192.04082491702022
4800.0,112.88616666666667,199.14691666666667,133.004,199.07291663333334
4945.454545454546,113.95328787878788,205.16992424242426,135.3559696969697,205.7739898821212
5090.909090909091,115.08175,211.1904015151515,137.77010606060605,210.6827651848485
5236.363636363637,116.3023787878788,217.2156262626263,140.2847575757576,217.56271046449498
5381.818181818182,117.58770454545454,223.2438863636364,142.85479545454547,222.28977272704546
5527.272727272728,118.96834848484849,229.26812878787882,145.49823484848486,229.45170451212124
5672.727272727273,120.42164141414142,235.3024292929293,148.18258585858587,236.00968012050507
5818.181818181819,121.92613636363637,241.35161363636365,150.84359090909092,241.0615530636364
5963.636363636364,123.52321212121213,247.37704040404043,153.60430303030304,247.7984006988384
6109.09090909091,125.17641666666667,253.4050984848485,156.42046969696972,252.64330807856064
6254.545454545455,126.92093181818183,259.4321363636364,159.3165,259.8304923909091
6400.000000000001,128.7338888888889,265.4652222222223,162.2760555555556,266.2453703588889
6545.454545454546,130.60606060606062,271.4948636363637,165.28354545454548,271.44034094242426
6690.909090909092,132.55654545454547,277.53677272727276,168.32700000000003,278.03409093318186
6836.363636363637,134.5350909090909,283.5875909090909,171.35135606060607,282.9968434300758
6981.818181818182,136.5850606060606,289.62055303030303,174.4141893939394,290.209280269697
7127.272727272728,138.69568181818184,295.249,177.52750000000003,296.44015151045454
7272.727272727273,140.85119696969699,299.73475757575756,180.57868181818182,300.60637629825754
7418.181818181819,143.0858484848485,301.80054545454544,183.3642171717172,302.7565937119192
7563.636363636364,145.37218181818182,303.8369090909091,186.0593409090909,304.4501262397727
7709.09090909091,147.71147727272728,305.8732727272727,188.67361363636365,306.8626894028031
7854.545454545455,150.1016717171717,307.9055505050505,191.24113131313132,308.9055836255051
8000.000000000001,152.52975,309.93275,193.78275000000002,310.73263892250003
8145.454545454546,154.9957272727273,311.95878282828284,196.2864696969697,312.8351571220202
8290.909090909092,157.47343939393943,313.98623484848486,198.77596212121216,314.56797136098487
8436.363636363638,159.97040909090913,316.01509090909093,201.23656818181823,316.9889520270455
8581.818181818182,162.4763585858586,318.0424747474748,203.6904393939394,318.9841470396465
8727.272727272728,164.98820454545455,320.0639621212121,206.13121212121214,320.8589015467424
8872.727272727274,167.45146969696972,322.1021515151515,208.50365151515155,322.9137205321212
9018.18181818182,169.85420454545456,324.147446969697,210.8094166666667,324.685816482197
9163.636363636364,172.2126212121212,326.1716893939394,213.07608333333334,327.1152146512879
9309.09090909091,174.56413636363638,328.1934848484849,215.3354090909091,329.0627104537879
9454.545454545456,176.91118939393942,330.21517424242427,217.58995454545456,330.98516417098483
9600.0,179.24838888888888,332.2372222222222,219.8445,332.99228394222223
9745.454545454546,181.58127272727273,334.2586590909091,222.0953409090909,334.8036616034091
9890.909090909092,183.90854545454548,336.28290151515154,224.33776515151516,337.2414772755303
10036.363636363638,186.23581818181822,338.304494949495,226.5828383838384,339.1412738679293
10181.818181818182,188.55802272727274,340.32638636363635,228.82254545454543,341.11142679522726
10327.272727272728,190.8707777777778,342.3482323232323,231.05764141414141,343.07084735232326
10472.727272727274,193.1790151515152,344.3698712121212,233.29315151515152,344.9215067246212
10618.18181818182,195.48204545454547,346.39411363636367,235.52345454545457,347.3677398997728
10763.636363636364,197.77937373737373,348.4155050505051,237.74805555555557,349.2198372820707
10909.09090909091,200.07243181818183,350.43759848484854,239.96838636363637,351.2376894194697
11054.545454545456,202.36074242424243,352.45924242424246,242.1839696969697,353.1494107624242
11200.000000000002,204.64433333333335,354.48108333333334,244.39975000000004,355.0393518458334
11345.454545454546,206.93015909090911,356.50532575757575,246.61089393939395,357.4940025240152
11490.909090909092,209.20580303030306,358.5265151515152,248.8230606060606,359.2984006962121
11636.363636363638,211.47441666666668,360.5488106060606,251.03301515151517,361.3639520437121
11781.818181818182,213.63746464646465,362.58705555555554,253.1550606060606,363.22797417252525
11927.272727272728,215.75095454545456,364.62229545454545,255.2399090909091,365.1571969670455
12072.727272727274,217.86004545454549,366.6465378787879,257.3247575757576,367.6202651482576
12218.18181818182,219.97564646464647,368.6675252525253,259.4096060606061,369.3769641103535
12363.636363636364,222.08822727272727,370.6831363636364,261.4944545454545,371.49021466795455
12509.09090909091,224.19131313131314,372.70126262626263,263.57930303030304,373.3065375826263
12654.545454545456,226.2964090909091,374.7235075757576,265.6641515151515,375.27504208825763
12800.000000000002,228.40550000000005,376.74775000000005,267.749,377.74652777250003
12945.454545454546,230.50767676767677,378.76853535353536,269.82693434343435,379.4555275244949
13090.909090909092,232.60618939393942,380.79123484848486,271.90869696969696,381.616477292197
13236.363636363638,234.70636363636365,382.8122727272727,273.9871363636364,383.3851009927273
13381.818181818184,236.80512878787883,384.82798484848485,276.06839393939396,385.39288720946973
13527.272727272728,238.91095454545456,386.84896212121214,278.14438636363633,387.87279039674246
13672.727272727274,241.0054090909091,388.8695454545455,280.22077272727273,389.5340909386364
13818.18181818182,243.1010378787879,390.892446969697,282.3029393939394,391.7427399164394
13963.636363636364,245.19460101010102,392.91328282828283,284.37416161616164,393.4636644028283
14109.09090909091,247.2899772727273,394.9359318181818,286.4526363636364,395.51073233068183
14254.545454545456,249.37748484848487,396.9507121212122,288.52802272727274,397.9990530209849
14400.0,251.47,398.97,290.6,400.0
